Label: FSR adapter 16: FSR.A 16 Sampling frequency: 5.185185e+002 Number of points: 56721 X start: 0.000000e+000 Unit: % Domain Unit: s
Label: FSR adapter 16: FSR.B 16 Sampling frequency: 5.185185e+002 Number of points: 56721 X start: 0.000000e+000 Unit: % Domain Unit: s
Label: FSR adapter 16: FSR.C 16 Sampling frequency: 5.185185e+002 Number of points: 56721 X start: 0.000000e+000 Unit: % Domain Unit: s
Label: FSR adapter 16: FSR.D 16 Sampling frequency: 5.185185e+002 Number of points: 56721 X start: 0.000000e+000 Unit: % Domain Unit: s
Start Trigger Method: Trigno Wireless System (start trigger)
Stop Trigger Method: Trigno Wireless System (stop trigger)
Use Camera: NO
Video File Path: 
System Gain: 3.250000e-002
A/D card Gain: 1.000000e+000
Bit Resolution: -1.000000e+000
Bias: 0.000000e+000
High pass cutoff frequency: 0.000000e+000
Low pass cutoff frequency: 0.000000e+000
System Gain: 3.250000e-002
A/D card Gain: 1.000000e+000
Bit Resolution: -1.000000e+000
Bias: 0.000000e+000
High pass cutoff frequency: 0.000000e+000
Low pass cutoff frequency: 0.000000e+000
System Gain: 3.250000e-002
A/D card Gain: 1.000000e+000
Bit Resolution: -1.000000e+000
Bias: 0.000000e+000
High pass cutoff frequency: 0.000000e+000
Low pass cutoff frequency: 0.000000e+000
System Gain: 3.250000e-002
A/D card Gain: 1.000000e+000
Bit Resolution: -1.000000e+000
Bias: 0.000000e+000
High pass cutoff frequency: 0.000000e+000
Low pass cutoff frequency: 0.000000e+000
X [s],FSR adapter 16: FSR.A 16 [%],FSR adapter 16: FSR.B 16 [%],FSR adapter 16: FSR.C 16 [%],FSR adapter 16: FSR.D 16 [%]
0.000000e+000,6.283438e-001,3.593853e+000,1.485783e+001,-1.154917e-002
1.928571e-003,6.283438e-001,3.593853e+000,1.486093e+001,-1.154917e-002
3.857143e-003,6.267944e-001,3.592303e+000,1.486093e+001,-9.999795e-003
5.785714e-003,6.283438e-001,3.592303e+000,1.485938e+001,-1.154917e-002
7.714286e-003,6.267944e-001,3.592303e+000,1.485938e+001,-1.154917e-002
9.642857e-003,6.283438e-001,3.590754e+000,1.485938e+001,-1.154917e-002
1.157143e-002,6.267944e-001,3.590754e+000,1.485628e+001,-9.999795e-003
1.350000e-002,6.283438e-001,3.592303e+000,1.485783e+001,-1.154917e-002
1.542857e-002,6.252450e-001,3.590754e+000,1.485783e+001,-1.154917e-002
1.735714e-002,6.283438e-001,3.592303e+000,1.485628e+001,-9.999795e-003
1.928571e-002,6.283438e-001,3.592303e+000,1.485628e+001,-1.154917e-002
2.121429e-002,6.283438e-001,3.590754e+000,1.485783e+001,-9.999795e-003
2.314286e-002,6.267944e-001,3.589205e+000,1.485628e+001,-9.999795e-003
2.507143e-002,6.283438e-001,3.590754e+000,1.485318e+001,-1.309855e-002
2.700000e-002,6.267944e-001,3.589205e+000,1.485473e+001,-1.154917e-002
2.892857e-002,6.267944e-001,3.590754e+000,1.485783e+001,-9.999795e-003
3.085714e-002,6.283438e-001,3.589205e+000,1.485938e+001,-1.154917e-002
3.278571e-002,6.267944e-001,3.589205e+000,1.485783e+001,-9.999795e-003
3.471429e-002,6.298932e-001,3.590754e+000,1.485783e+001,-1.309855e-002
3.664286e-002,6.298932e-001,3.590754e+000,1.486093e+001,-9.999795e-003
3.857143e-002,6.298932e-001,3.589205e+000,1.485783e+001,-1.154917e-002
4.050000e-002,6.314425e-001,3.589205e+000,1.486093e+001,-9.999795e-003
4.242857e-002,6.298932e-001,3.589205e+000,1.486093e+001,-1.154917e-002
4.435714e-002,6.314425e-001,3.587655e+000,1.486403e+001,-1.154917e-002
4.628571e-002,6.298932e-001,3.587655e+000,1.486248e+001,-1.154917e-002
4.821429e-002,6.298932e-001,3.587655e+000,1.486093e+001,-1.154917e-002
5.014286e-002,6.298932e-001,3.586106e+000,1.486093e+001,-9.999795e-003
5.207143e-002,6.298932e-001,3.586106e+000,1.486248e+001,-1.154917e-002
5.400000e-002,6.329919e-001,3.584556e+000,1.486093e+001,-9.999795e-003
5.592857e-002,6.329919e-001,3.586106e+000,1.486093e+001,-1.309855e-002
5.785714e-002,6.314425e-001,3.584556e+000,1.485938e+001,-1.154917e-002
5.978571e-002,6.314425e-001,3.586106e+000,1.486093e+001,-1.154917e-002
6.171429e-002,6.329919e-001,3.586106e+000,1.486093e+001,-9.999795e-003
6.364286e-002,6.345413e-001,3.586106e+000,1.486248e+001,-1.309855e-002
6.557143e-002,6.329919e-001,3.586106e+000,1.486403e+001,-1.309855e-002
6.750000e-002,6.314425e-001,3.586106e+000,1.486712e+001,-1.154917e-002
6.942857e-002,6.314425e-001,3.584556e+000,1.486712e+001,-9.999795e-003
7.135714e-002,6.329919e-001,3.584556e+000,1.486712e+001,-9.999795e-003
7.328571e-002,6.314425e-001,3.586106e+000,1.487022e+001,-1.154917e-002
7.521429e-002,6.314425e-001,3.584556e+000,1.486867e+001,-9.999795e-003
7.714286e-002,6.314425e-001,3.586106e+000,1.486712e+001,-1.154917e-002
7.907143e-002,6.329919e-001,3.586106e+000,1.486712e+001,-1.309855e-002
8.100000e-002,6.314425e-001,3.586106e+000,1.486712e+001,-1.154917e-002
8.292857e-002,6.314425e-001,3.589205e+000,1.486712e+001,-1.154917e-002
8.485714e-002,6.329919e-001,3.586106e+000,1.486867e+001,-1.154917e-002
8.678571e-002,6.329919e-001,3.587655e+000,1.486712e+001,-9.999795e-003
8.871429e-002,6.345413e-001,3.586106e+000,1.486557e+001,-1.154917e-002
9.064286e-002,6.345413e-001,3.586106e+000,1.486403e+001,-1.154917e-002
9.257143e-002,6.345413e-001,3.586106e+000,1.486248e+001,-1.154917e-002
9.450000e-002,6.329919e-001,3.584556e+000,1.486712e+001,-9.999795e-003
9.642857e-002,6.360907e-001,3.587655e+000,1.486403e+001,-1.154917e-002
9.835714e-002,6.345413e-001,3.586106e+000,1.486403e+001,-9.999795e-003
1.002857e-001,6.329919e-001,3.587655e+000,1.486712e+001,-1.154917e-002
1.022143e-001,6.345413e-001,3.589205e+000,1.486403e+001,-9.999795e-003
1.041429e-001,6.345413e-001,3.589205e+000,1.486403e+001,-1.154917e-002
1.060714e-001,6.360907e-001,3.589205e+000,1.486403e+001,-1.154917e-002
1.080000e-001,6.345413e-001,3.589205e+000,1.486403e+001,-1.154917e-002
1.099286e-001,6.345413e-001,3.590754e+000,1.486403e+001,-9.999795e-003
1.118571e-001,6.360907e-001,3.589205e+000,1.486248e+001,-9.999795e-003
1.137857e-001,6.360907e-001,3.587655e+000,1.486248e+001,-9.999795e-003
1.157143e-001,6.360907e-001,3.589205e+000,1.486093e+001,-9.999795e-003
1.176429e-001,6.360907e-001,3.590754e+000,1.486093e+001,-1.154917e-002
1.195714e-001,6.376401e-001,3.590754e+000,1.485783e+001,-1.154917e-002
1.215000e-001,6.360907e-001,3.589205e+000,1.485783e+001,-1.154917e-002
1.234286e-001,6.345413e-001,3.590754e+000,1.485628e+001,-9.999795e-003
1.253571e-001,6.360907e-001,3.589205e+000,1.485473e+001,-1.154917e-002
1.272857e-001,6.345413e-001,3.590754e+000,1.485473e+001,-9.999795e-003
1.292143e-001,6.345413e-001,3.590754e+000,1.485318e+001,-1.154917e-002
1.311429e-001,6.345413e-001,3.590754e+000,1.485318e+001,-9.999795e-003
1.330714e-001,6.360907e-001,3.590754e+000,1.484853e+001,-1.154917e-002
1.350000e-001,6.345413e-001,3.589205e+000,1.485163e+001,-9.999795e-003
1.369286e-001,6.345413e-001,3.589205e+000,1.485008e+001,-9.999795e-003
1.388571e-001,6.360907e-001,3.592303e+000,1.485008e+001,-1.154917e-002
1.407857e-001,6.345413e-001,3.590754e+000,1.485163e+001,-9.999795e-003
1.427143e-001,6.345413e-001,3.592303e+000,1.485163e+001,-9.999795e-003
1.446429e-001,6.329919e-001,3.590754e+000,1.485163e+001,-1.154917e-002
1.465714e-001,6.345413e-001,3.593853e+000,1.485163e+001,-1.309855e-002
1.485000e-001,6.345413e-001,3.590754e+000,1.485163e+001,-1.154917e-002
1.504286e-001,6.345413e-001,3.590754e+000,1.485318e+001,-1.154917e-002
1.523571e-001,6.329919e-001,3.590754e+000,1.485473e+001,-9.999795e-003
1.542857e-001,6.329919e-001,3.590754e+000,1.485473e+001,-1.154917e-002
1.562143e-001,6.345413e-001,3.590754e+000,1.485473e+001,-8.450417e-003
1.581429e-001,6.329919e-001,3.590754e+000,1.485783e+001,-1.154917e-002
1.600714e-001,6.345413e-001,3.590754e+000,1.485783e+001,-1.309855e-002
1.620000e-001,6.345413e-001,3.589205e+000,1.486093e+001,-9.999795e-003
1.639286e-001,6.360907e-001,3.590754e+000,1.486403e+001,-9.999795e-003
1.658571e-001,6.360907e-001,3.592303e+000,1.486557e+001,-9.999795e-003
1.677857e-001,6.345413e-001,3.590754e+000,1.486867e+001,-9.999795e-003
1.697143e-001,6.329919e-001,3.592303e+000,1.486867e+001,-1.154917e-002
1.716429e-001,6.329919e-001,3.590754e+000,1.487022e+001,-1.154917e-002
1.735714e-001,6.345413e-001,3.590754e+000,1.487022e+001,-1.154917e-002
1.755000e-001,6.345413e-001,3.590754e+000,1.487022e+001,-1.154917e-002
1.774286e-001,6.314425e-001,3.590754e+000,1.487022e+001,-9.999795e-003
1.793571e-001,6.283438e-001,3.590754e+000,1.487022e+001,-1.154917e-002
1.812857e-001,6.252450e-001,3.589205e+000,1.487022e+001,-1.154917e-002
1.832143e-001,6.236957e-001,3.589205e+000,1.487177e+001,-1.154917e-002
1.851429e-001,6.174982e-001,3.587655e+000,1.487332e+001,-9.999795e-003
1.870714e-001,6.190475e-001,3.587655e+000,1.487332e+001,-1.154917e-002
1.890000e-001,6.190475e-001,3.586106e+000,1.487487e+001,-1.154917e-002
1.909286e-001,6.159488e-001,3.589205e+000,1.487487e+001,-1.154917e-002
1.928571e-001,6.174982e-001,3.587655e+000,1.487487e+001,-9.999795e-003
1.947857e-001,6.159488e-001,3.587655e+000,1.487642e+001,-9.999795e-003
1.967143e-001,6.159488e-001,3.587655e+000,1.487797e+001,-9.999795e-003
1.986429e-001,6.174982e-001,3.586106e+000,1.487642e+001,-1.154917e-002
2.005714e-001,6.143994e-001,3.584556e+000,1.487642e+001,-1.154917e-002
2.025000e-001,6.159488e-001,3.583007e+000,1.487952e+001,-9.999795e-003
2.044286e-001,6.143994e-001,3.583007e+000,1.487797e+001,-9.999795e-003
2.063571e-001,6.143994e-001,3.583007e+000,1.487952e+001,-1.154917e-002
2.082857e-001,6.159488e-001,3.583007e+000,1.487952e+001,-8.450417e-003
2.102143e-001,6.159488e-001,3.579908e+000,1.487952e+001,-1.154917e-002
2.121429e-001,6.159488e-001,3.583007e+000,1.488107e+001,-1.154917e-002
2.140714e-001,6.143994e-001,3.581458e+000,1.487952e+001,-1.154917e-002
2.160000e-001,6.159488e-001,3.581458e+000,1.488107e+001,-9.999795e-003
2.179286e-001,6.159488e-001,3.583007e+000,1.488107e+001,-1.154917e-002
2.198571e-001,6.174982e-001,3.584556e+000,1.488262e+001,-9.999795e-003
2.217857e-001,6.159488e-001,3.584556e+000,1.488262e+001,-1.154917e-002
2.237143e-001,6.174982e-001,3.584556e+000,1.488262e+001,-9.999795e-003
2.256429e-001,6.174982e-001,3.584556e+000,1.488572e+001,-9.999795e-003
2.275714e-001,6.190475e-001,3.587655e+000,1.488572e+001,-1.309855e-002
2.295000e-001,6.205969e-001,3.586106e+000,1.488882e+001,-1.154917e-002
2.314286e-001,6.236957e-001,3.587655e+000,1.488882e+001,-1.154917e-002
2.333571e-001,6.221463e-001,3.587655e+000,1.488882e+001,-9.999795e-003
2.352857e-001,6.205969e-001,3.589205e+000,1.488882e+001,-9.999795e-003
2.372143e-001,6.221463e-001,3.590754e+000,1.489037e+001,-1.154917e-002
2.391429e-001,6.236957e-001,3.589205e+000,1.488882e+001,-9.999795e-003
2.410714e-001,6.236957e-001,3.589205e+000,1.488882e+001,-9.999795e-003
2.430000e-001,6.267944e-001,3.589205e+000,1.488882e+001,-1.154917e-002
2.449286e-001,6.283438e-001,3.589205e+000,1.488882e+001,-1.154917e-002
2.468571e-001,6.329919e-001,3.589205e+000,1.489191e+001,-9.999795e-003
2.487857e-001,6.329919e-001,3.589205e+000,1.489191e+001,-9.999795e-003
2.507143e-001,6.360907e-001,3.589205e+000,1.489191e+001,-1.154917e-002
2.526429e-001,6.360907e-001,3.586106e+000,1.489191e+001,-9.999795e-003
2.545714e-001,6.376401e-001,3.587655e+000,1.488882e+001,-1.154917e-002
2.565000e-001,6.376401e-001,3.587655e+000,1.488882e+001,-1.154917e-002
2.584286e-001,6.360907e-001,3.587655e+000,1.488882e+001,-9.999795e-003
2.603571e-001,6.360907e-001,3.589205e+000,1.488572e+001,-1.154917e-002
2.622857e-001,6.376401e-001,3.587655e+000,1.488417e+001,-9.999795e-003
2.642143e-001,6.360907e-001,3.587655e+000,1.488262e+001,-1.154917e-002
2.661429e-001,6.376401e-001,3.587655e+000,1.488262e+001,-9.999795e-003
2.680714e-001,6.345413e-001,3.586106e+000,1.488262e+001,-1.154917e-002
2.700000e-001,6.360907e-001,3.587655e+000,1.488262e+001,-1.154917e-002
2.719286e-001,6.345413e-001,3.587655e+000,1.488262e+001,-1.154917e-002
2.738571e-001,6.360907e-001,3.589205e+000,1.488572e+001,-9.999795e-003
2.757857e-001,6.360907e-001,3.587655e+000,1.488572e+001,-1.154917e-002
2.777143e-001,6.376401e-001,3.589205e+000,1.488572e+001,-9.999795e-003
2.796429e-001,6.360907e-001,3.590754e+000,1.488727e+001,-1.154917e-002
2.815714e-001,6.360907e-001,3.587655e+000,1.488572e+001,-1.309855e-002
2.835000e-001,6.376401e-001,3.590754e+000,1.488417e+001,-1.154917e-002
2.854286e-001,6.360907e-001,3.589205e+000,1.488572e+001,-9.999795e-003
2.873571e-001,6.376401e-001,3.589205e+000,1.488572e+001,-1.154917e-002
2.892857e-001,6.376401e-001,3.590754e+000,1.488262e+001,-1.154917e-002
2.912143e-001,6.391894e-001,3.590754e+000,1.488262e+001,-9.999795e-003
2.931429e-001,6.391894e-001,3.592303e+000,1.488417e+001,-1.154917e-002
2.950714e-001,6.407388e-001,3.593853e+000,1.488417e+001,-1.154917e-002
2.970000e-001,6.407388e-001,3.593853e+000,1.488727e+001,-1.154917e-002
2.989286e-001,6.391894e-001,3.593853e+000,1.488727e+001,-1.154917e-002
3.008571e-001,6.407388e-001,3.595402e+000,1.488727e+001,-9.999795e-003
3.027857e-001,6.407388e-001,3.595402e+000,1.488882e+001,-1.154917e-002
3.047143e-001,6.407388e-001,3.595402e+000,1.488882e+001,-1.154917e-002
3.066429e-001,6.391894e-001,3.595402e+000,1.489037e+001,-1.154917e-002
3.085714e-001,6.391894e-001,3.596951e+000,1.488727e+001,-1.154917e-002
3.105000e-001,6.391894e-001,3.596951e+000,1.489191e+001,-1.309855e-002
3.124286e-001,6.391894e-001,3.595402e+000,1.489191e+001,-1.154917e-002
3.143571e-001,6.438376e-001,3.595402e+000,1.489191e+001,-1.154917e-002
3.162857e-001,6.407388e-001,3.596951e+000,1.489191e+001,-1.154917e-002
3.182143e-001,6.422882e-001,3.595402e+000,1.489191e+001,-1.154917e-002
3.201429e-001,6.422882e-001,3.593853e+000,1.489346e+001,-1.154917e-002
3.220714e-001,6.407388e-001,3.595402e+000,1.489191e+001,-1.154917e-002
3.240000e-001,6.407388e-001,3.593853e+000,1.489191e+001,-9.999795e-003
3.259286e-001,6.422882e-001,3.593853e+000,1.488882e+001,-9.999795e-003
3.278571e-001,6.422882e-001,3.593853e+000,1.489037e+001,-1.154917e-002
3.297857e-001,6.422882e-001,3.595402e+000,1.489037e+001,-1.154917e-002
3.317143e-001,6.391894e-001,3.595402e+000,1.488882e+001,-9.999795e-003
3.336429e-001,6.422882e-001,3.593853e+000,1.488882e+001,-1.154917e-002
3.355714e-001,6.407388e-001,3.596951e+000,1.488572e+001,-1.154917e-002
3.375000e-001,6.422882e-001,3.593853e+000,1.488572e+001,-1.154917e-002
3.394286e-001,6.407388e-001,3.596951e+000,1.488572e+001,-1.154917e-002
3.413571e-001,6.407388e-001,3.595402e+000,1.488417e+001,-1.154917e-002
3.432857e-001,6.422882e-001,3.595402e+000,1.488417e+001,-9.999795e-003
3.452143e-001,6.407388e-001,3.596951e+000,1.488572e+001,-9.999795e-003
3.471429e-001,6.422882e-001,3.596951e+000,1.488727e+001,-9.999795e-003
3.490714e-001,6.422882e-001,3.596951e+000,1.488882e+001,-1.154917e-002
3.510000e-001,6.422882e-001,3.598501e+000,1.489191e+001,-9.999795e-003
3.529286e-001,6.407388e-001,3.600050e+000,1.489037e+001,-1.154917e-002
3.548571e-001,6.407388e-001,3.598501e+000,1.489346e+001,-1.154917e-002
3.567857e-001,6.438376e-001,3.598501e+000,1.489346e+001,-1.154917e-002
3.587143e-001,6.422882e-001,3.598501e+000,1.489346e+001,-9.999795e-003
3.606429e-001,6.438376e-001,3.600050e+000,1.489346e+001,-1.154917e-002
3.625714e-001,6.422882e-001,3.600050e+000,1.489191e+001,-9.999795e-003
3.645000e-001,6.438376e-001,3.601599e+000,1.489346e+001,-9.999795e-003
3.664286e-001,6.438376e-001,3.601599e+000,1.489501e+001,-1.154917e-002
3.683571e-001,6.453869e-001,3.601599e+000,1.489346e+001,-1.309855e-002
3.702857e-001,6.438376e-001,3.604698e+000,1.489346e+001,-8.450417e-003
3.722143e-001,6.438376e-001,3.603149e+000,1.489037e+001,-9.999795e-003
3.741429e-001,6.469364e-001,3.603149e+000,1.489191e+001,-1.154917e-002
3.760714e-001,6.438376e-001,3.601599e+000,1.488882e+001,-1.309855e-002
3.780000e-001,6.422882e-001,3.603149e+000,1.489191e+001,-9.999795e-003
3.799286e-001,6.438376e-001,3.603149e+000,1.489191e+001,-1.154917e-002
3.818571e-001,6.422882e-001,3.606248e+000,1.489346e+001,-9.999795e-003
3.837857e-001,6.438376e-001,3.603149e+000,1.489346e+001,-1.154917e-002
3.857143e-001,6.453869e-001,3.603149e+000,1.489656e+001,-9.999795e-003
3.876429e-001,6.438376e-001,3.603149e+000,1.489656e+001,-1.154917e-002
3.895714e-001,6.453869e-001,3.601599e+000,1.489501e+001,-1.154917e-002
3.915000e-001,6.469364e-001,3.603149e+000,1.489501e+001,-9.999795e-003
3.934286e-001,6.453869e-001,3.601599e+000,1.489346e+001,-9.999795e-003
3.953571e-001,6.453869e-001,3.601599e+000,1.489501e+001,-9.999795e-003
3.972857e-001,6.453869e-001,3.601599e+000,1.489501e+001,-9.999795e-003
3.992143e-001,6.469364e-001,3.600050e+000,1.489346e+001,-9.999795e-003
4.011429e-001,6.469364e-001,3.603149e+000,1.489191e+001,-1.154917e-002
4.030714e-001,6.469364e-001,3.606248e+000,1.489346e+001,-1.154917e-002
4.050000e-001,6.469364e-001,3.606248e+000,1.489346e+001,-8.450417e-003
4.069286e-001,6.453869e-001,3.607797e+000,1.489501e+001,-1.154917e-002
4.088571e-001,6.453869e-001,3.609346e+000,1.489501e+001,-9.999795e-003
4.107857e-001,6.438376e-001,3.607797e+000,1.489501e+001,-9.999795e-003
4.127143e-001,6.453869e-001,3.609346e+000,1.489501e+001,-1.154917e-002
4.146429e-001,6.453869e-001,3.607797e+000,1.489346e+001,-1.154917e-002
4.165714e-001,6.453869e-001,3.609346e+000,1.489346e+001,-1.154917e-002
4.185000e-001,6.453869e-001,3.609346e+000,1.489501e+001,-1.154917e-002
4.204286e-001,6.438376e-001,3.610896e+000,1.489501e+001,-9.999795e-003
4.223571e-001,6.453869e-001,3.609346e+000,1.489501e+001,-1.154917e-002
4.242857e-001,6.469364e-001,3.610896e+000,1.489346e+001,-9.999795e-003
4.262143e-001,6.469364e-001,3.612445e+000,1.489191e+001,-1.154917e-002
4.281429e-001,6.453869e-001,3.610896e+000,1.489191e+001,-1.154917e-002
4.300714e-001,6.438376e-001,3.612445e+000,1.489191e+001,-1.154917e-002
4.320000e-001,6.422882e-001,3.610896e+000,1.489191e+001,-9.999795e-003
4.339286e-001,6.422882e-001,3.612445e+000,1.489191e+001,-9.999795e-003
4.358571e-001,6.422882e-001,3.613995e+000,1.489191e+001,-9.999795e-003
4.377857e-001,6.422882e-001,3.613995e+000,1.489501e+001,-1.154917e-002
4.397143e-001,6.438376e-001,3.612445e+000,1.489501e+001,-1.154917e-002
4.416429e-001,6.453869e-001,3.610896e+000,1.489501e+001,-1.154917e-002
4.435714e-001,6.469364e-001,3.612445e+000,1.489346e+001,-1.154917e-002
4.455000e-001,6.469364e-001,3.610896e+000,1.489501e+001,-8.450417e-003
4.474286e-001,6.453869e-001,3.610896e+000,1.489501e+001,-1.309855e-002
4.493571e-001,6.438376e-001,3.609346e+000,1.489346e+001,-1.154917e-002
4.512857e-001,6.453869e-001,3.609346e+000,1.489191e+001,-1.154917e-002
4.532143e-001,6.438376e-001,3.612445e+000,1.489191e+001,-9.999795e-003
4.551429e-001,6.422882e-001,3.615544e+000,1.489191e+001,-1.154917e-002
4.570714e-001,6.422882e-001,3.621742e+000,1.489346e+001,-1.154917e-002
4.590000e-001,6.391894e-001,3.624840e+000,1.489346e+001,-1.154917e-002
4.609286e-001,6.391894e-001,3.627939e+000,1.489191e+001,-1.154917e-002
4.628571e-001,6.376401e-001,3.631038e+000,1.489501e+001,-9.999795e-003
4.647857e-001,6.360907e-001,3.632587e+000,1.489501e+001,-1.154917e-002
4.667143e-001,6.345413e-001,3.634136e+000,1.489501e+001,-1.154917e-002
4.686429e-001,6.391894e-001,3.635686e+000,1.489656e+001,-1.154917e-002
4.705714e-001,6.376401e-001,3.638785e+000,1.489501e+001,-1.309855e-002
4.725000e-001,6.422882e-001,3.640334e+000,1.489656e+001,-1.309855e-002
4.744286e-001,6.422882e-001,3.640334e+000,1.489811e+001,-1.154917e-002
4.763571e-001,6.391894e-001,3.640334e+000,1.489501e+001,-8.450417e-003
4.782857e-001,6.329919e-001,3.638785e+000,1.489501e+001,-1.154917e-002
4.802143e-001,6.267944e-001,3.638785e+000,1.489656e+001,-9.999795e-003
4.821429e-001,6.205969e-001,3.640334e+000,1.489501e+001,-9.999795e-003
4.840714e-001,6.159488e-001,3.644982e+000,1.489501e+001,-9.999795e-003
4.860000e-001,6.082019e-001,3.644982e+000,1.489656e+001,-1.154917e-002
4.879286e-001,6.051031e-001,3.644982e+000,1.489656e+001,-9.999795e-003
4.898571e-001,6.051031e-001,3.646532e+000,1.489501e+001,-9.999795e-003
4.917857e-001,6.066525e-001,3.651180e+000,1.489501e+001,-9.999795e-003
4.937143e-001,6.128500e-001,3.657377e+000,1.489501e+001,-9.999795e-003
4.956429e-001,6.128500e-001,3.660476e+000,1.489501e+001,-1.154917e-002
4.975714e-001,6.113006e-001,3.663575e+000,1.489501e+001,-1.154917e-002
4.995000e-001,6.128500e-001,3.663575e+000,1.489966e+001,-8.450417e-003
5.014286e-001,6.128500e-001,3.666673e+000,1.489966e+001,-1.154917e-002
5.033571e-001,6.128500e-001,3.668223e+000,1.489966e+001,-1.154917e-002
5.052857e-001,6.097513e-001,3.671322e+000,1.489656e+001,-1.154917e-002
5.072143e-001,6.082019e-001,3.671322e+000,1.489811e+001,-1.154917e-002
5.091429e-001,6.051031e-001,3.675970e+000,1.489346e+001,-9.999795e-003
5.110714e-001,6.035538e-001,3.680618e+000,1.489037e+001,-1.154917e-002
5.130000e-001,6.020044e-001,3.685266e+000,1.489191e+001,-1.154917e-002
5.149286e-001,6.020044e-001,3.689914e+000,1.489191e+001,-1.154917e-002
5.168571e-001,6.051031e-001,3.689914e+000,1.489037e+001,-9.999795e-003
5.187857e-001,6.066525e-001,3.689914e+000,1.488882e+001,-1.154917e-002
5.207143e-001,6.113006e-001,3.694562e+000,1.489191e+001,-1.154917e-002
5.226429e-001,6.113006e-001,3.696112e+000,1.489191e+001,-8.450417e-003
5.245714e-001,6.128500e-001,3.699210e+000,1.489191e+001,-1.154917e-002
5.265000e-001,6.174982e-001,3.702309e+000,1.489191e+001,-9.999795e-003
5.284286e-001,6.190475e-001,3.702309e+000,1.488882e+001,-1.154917e-002
5.303571e-001,6.236957e-001,3.702309e+000,1.489191e+001,-9.999795e-003
5.322857e-001,6.221463e-001,3.705408e+000,1.489191e+001,-1.309855e-002
5.342143e-001,6.190475e-001,3.705408e+000,1.489191e+001,-9.999795e-003
5.361429e-001,6.159488e-001,3.706957e+000,1.488882e+001,-8.450417e-003
5.380714e-001,6.143994e-001,3.706957e+000,1.488882e+001,-1.154917e-002
5.400000e-001,6.143994e-001,3.708507e+000,1.488882e+001,-1.309855e-002
5.419286e-001,6.113006e-001,3.708507e+000,1.489037e+001,-8.450417e-003
5.438571e-001,6.066525e-001,3.710056e+000,1.489191e+001,-1.154917e-002
5.457857e-001,6.066525e-001,3.706957e+000,1.489037e+001,-9.999795e-003
5.477143e-001,6.082019e-001,3.706957e+000,1.489037e+001,-1.154917e-002
5.496429e-001,6.066525e-001,3.706957e+000,1.489037e+001,-1.154917e-002
5.515714e-001,6.082019e-001,3.705408e+000,1.488882e+001,-1.309855e-002
5.535000e-001,6.082019e-001,3.706957e+000,1.489037e+001,-1.154917e-002
5.554286e-001,6.035538e-001,3.708507e+000,1.489191e+001,-1.154917e-002
5.573571e-001,6.035538e-001,3.708507e+000,1.489346e+001,-1.309855e-002
5.592857e-001,6.035538e-001,3.710056e+000,1.489501e+001,-1.309855e-002
5.612143e-001,6.066525e-001,3.708507e+000,1.489501e+001,-9.999795e-003
5.631429e-001,6.113006e-001,3.710056e+000,1.489811e+001,-1.154917e-002
5.650714e-001,6.143994e-001,3.711605e+000,1.489501e+001,-1.154917e-002
5.670000e-001,6.190475e-001,3.710056e+000,1.489811e+001,-9.999795e-003
5.689286e-001,6.252450e-001,3.711605e+000,1.489501e+001,-1.154917e-002
5.708571e-001,6.314425e-001,3.711605e+000,1.489346e+001,-1.154917e-002
5.727857e-001,6.360907e-001,3.711605e+000,1.489346e+001,-9.999795e-003
5.747143e-001,6.407388e-001,3.710056e+000,1.489346e+001,-1.154917e-002
5.766429e-001,6.438376e-001,3.708507e+000,1.489501e+001,-1.154917e-002
5.785714e-001,6.376401e-001,3.705408e+000,1.489501e+001,-1.309855e-002
5.805000e-001,6.283438e-001,3.702309e+000,1.489501e+001,-9.999795e-003
5.824286e-001,6.221463e-001,3.699210e+000,1.489656e+001,-1.154917e-002
5.843571e-001,6.221463e-001,3.700760e+000,1.489966e+001,-1.154917e-002
5.862857e-001,6.190475e-001,3.697661e+000,1.489811e+001,-1.154917e-002
5.882143e-001,6.174982e-001,3.697661e+000,1.489811e+001,-1.309855e-002
5.901429e-001,6.190475e-001,3.697661e+000,1.489966e+001,-8.450417e-003
5.920714e-001,6.159488e-001,3.700760e+000,1.489966e+001,-9.999795e-003
5.940000e-001,6.143994e-001,3.700760e+000,1.490121e+001,-8.450417e-003
5.959286e-001,6.159488e-001,3.700760e+000,1.490121e+001,-9.999795e-003
5.978571e-001,6.097513e-001,3.702309e+000,1.490121e+001,-1.154917e-002
5.997857e-001,6.004550e-001,3.702309e+000,1.489966e+001,-1.154917e-002
6.017143e-001,5.942575e-001,3.702309e+000,1.490121e+001,-1.154917e-002
6.036429e-001,5.896094e-001,3.706957e+000,1.490121e+001,-1.154917e-002
6.055714e-001,5.880600e-001,3.703858e+000,1.489811e+001,-1.154917e-002
6.075000e-001,5.880600e-001,3.708507e+000,1.489811e+001,-1.154917e-002
6.094286e-001,5.880600e-001,3.708507e+000,1.489966e+001,-1.154917e-002
6.113571e-001,5.896094e-001,3.708507e+000,1.490121e+001,-9.999795e-003
6.132857e-001,5.911587e-001,3.708507e+000,1.489811e+001,-1.154917e-002
6.152143e-001,5.896094e-001,3.708507e+000,1.490121e+001,-1.154917e-002
6.171429e-001,5.927081e-001,3.706957e+000,1.489811e+001,-9.999795e-003
6.190714e-001,5.927081e-001,3.708507e+000,1.489811e+001,-1.309855e-002
6.210000e-001,5.927081e-001,3.708507e+000,1.489966e+001,-1.154917e-002
6.229286e-001,5.927081e-001,3.708507e+000,1.489966e+001,-8.450417e-003
6.248571e-001,5.942575e-001,3.710056e+000,1.489966e+001,-9.999795e-003
6.267857e-001,5.927081e-001,3.710056e+000,1.490121e+001,-9.999795e-003
6.287143e-001,5.942575e-001,3.711605e+000,1.490121e+001,-1.154917e-002
6.306429e-001,5.942575e-001,3.711605e+000,1.490276e+001,-1.154917e-002
6.325714e-001,5.958069e-001,3.711605e+000,1.490121e+001,-1.154917e-002
6.345000e-001,5.958069e-001,3.711605e+000,1.490121e+001,-1.154917e-002
6.364286e-001,5.958069e-001,3.710056e+000,1.490741e+001,-9.999795e-003
6.383571e-001,5.973563e-001,3.713155e+000,1.490586e+001,-9.999795e-003
6.402857e-001,5.973563e-001,3.711605e+000,1.490276e+001,-1.154917e-002
6.422143e-001,5.958069e-001,3.711605e+000,1.490741e+001,-1.154917e-002
6.441429e-001,5.958069e-001,3.710056e+000,1.490741e+001,-1.154917e-002
6.460714e-001,5.973563e-001,3.710056e+000,1.490741e+001,-9.999795e-003
6.480000e-001,5.958069e-001,3.710056e+000,1.490896e+001,-9.999795e-003
6.499286e-001,5.958069e-001,3.713155e+000,1.490896e+001,-9.999795e-003
6.518571e-001,5.942575e-001,3.713155e+000,1.490896e+001,-9.999795e-003
6.537857e-001,5.958069e-001,3.714704e+000,1.490896e+001,-9.999795e-003
6.557143e-001,5.973563e-001,3.714704e+000,1.490741e+001,-1.154917e-002
6.576429e-001,6.004550e-001,3.713155e+000,1.490896e+001,-1.154917e-002
6.595714e-001,6.004550e-001,3.713155e+000,1.490741e+001,-1.154917e-002
6.615000e-001,6.035538e-001,3.711605e+000,1.491051e+001,-9.999795e-003
6.634286e-001,6.051031e-001,3.711605e+000,1.490896e+001,-1.154917e-002
6.653571e-001,6.051031e-001,3.714704e+000,1.491051e+001,-9.999795e-003
6.672857e-001,6.020044e-001,3.713155e+000,1.491051e+001,-9.999795e-003
6.692143e-001,6.004550e-001,3.714704e+000,1.491361e+001,-1.154917e-002
6.711429e-001,5.973563e-001,3.714704e+000,1.491206e+001,-1.154917e-002
6.730714e-001,5.989056e-001,3.714704e+000,1.491670e+001,-1.154917e-002
6.750000e-001,5.973563e-001,3.713155e+000,1.491825e+001,-9.999795e-003
6.769286e-001,5.958069e-001,3.711605e+000,1.491516e+001,-1.154917e-002
6.788571e-001,5.989056e-001,3.714704e+000,1.491980e+001,-1.154917e-002
6.807857e-001,5.942575e-001,3.713155e+000,1.491980e+001,-1.154917e-002
6.827143e-001,5.865106e-001,3.713155e+000,1.491980e+001,-1.154917e-002
6.846429e-001,5.849612e-001,3.711605e+000,1.492290e+001,-1.154917e-002
6.865714e-001,5.834119e-001,3.710056e+000,1.491980e+001,-1.154917e-002
6.885000e-001,5.818624e-001,3.708507e+000,1.492135e+001,-1.154917e-002
6.904286e-001,5.818624e-001,3.706957e+000,1.492135e+001,-9.999795e-003
6.923571e-001,5.834119e-001,3.706957e+000,1.492290e+001,-1.154917e-002
6.942857e-001,5.818624e-001,3.702309e+000,1.492290e+001,-1.154917e-002
6.962143e-001,5.818624e-001,3.702309e+000,1.491825e+001,-9.999795e-003
6.981429e-001,5.787637e-001,3.700760e+000,1.491980e+001,-1.154917e-002
7.000714e-001,5.787637e-001,3.694562e+000,1.491825e+001,-1.309855e-002
7.020000e-001,5.756649e-001,3.689914e+000,1.491980e+001,-9.999795e-003
7.039286e-001,5.787637e-001,3.685266e+000,1.491825e+001,-9.999795e-003
7.058571e-001,5.818624e-001,3.682167e+000,1.491670e+001,-1.154917e-002
7.077857e-001,5.880600e-001,3.683717e+000,1.491825e+001,-1.154917e-002
7.097143e-001,5.973563e-001,3.685266e+000,1.491980e+001,-1.154917e-002
7.116429e-001,6.020044e-001,3.686815e+000,1.492135e+001,-1.154917e-002
7.135714e-001,6.051031e-001,3.683717e+000,1.491980e+001,-1.309855e-002
7.155000e-001,6.004550e-001,3.683717e+000,1.492135e+001,-9.999795e-003
7.174286e-001,5.989056e-001,3.682167e+000,1.492290e+001,-1.154917e-002
7.193571e-001,5.973563e-001,3.674420e+000,1.492445e+001,-9.999795e-003
7.212857e-001,5.973563e-001,3.669772e+000,1.492600e+001,-1.154917e-002
7.232143e-001,6.020044e-001,3.666673e+000,1.492600e+001,-1.154917e-002
7.251429e-001,5.973563e-001,3.669772e+000,1.492755e+001,-9.999795e-003
7.270714e-001,5.911587e-001,3.669772e+000,1.492600e+001,-1.154917e-002
7.290000e-001,5.803131e-001,3.669772e+000,1.492910e+001,-1.154917e-002
7.309286e-001,5.663687e-001,3.665124e+000,1.493065e+001,-9.999795e-003
7.328571e-001,5.586218e-001,3.660476e+000,1.493065e+001,-9.999795e-003
7.347857e-001,5.570724e-001,3.658926e+000,1.493220e+001,-1.154917e-002
7.367143e-001,5.493255e-001,3.657377e+000,1.493220e+001,-1.154917e-002
7.386429e-001,5.446774e-001,3.658926e+000,1.492910e+001,-1.154917e-002
7.405714e-001,5.400293e-001,3.660476e+000,1.492910e+001,-1.154917e-002
7.425000e-001,5.307330e-001,3.658926e+000,1.493220e+001,-1.154917e-002
7.444286e-001,5.229861e-001,3.651180e+000,1.493065e+001,-9.999795e-003
7.463571e-001,5.152392e-001,3.646532e+000,1.493220e+001,-1.154917e-002
7.482857e-001,5.105911e-001,3.640334e+000,1.493220e+001,-1.154917e-002
7.502143e-001,5.074924e-001,3.637235e+000,1.493530e+001,-9.999795e-003
7.521429e-001,5.028442e-001,3.632587e+000,1.493530e+001,-9.999795e-003
7.540714e-001,4.966467e-001,3.631038e+000,1.493220e+001,-1.154917e-002
7.560000e-001,4.919986e-001,3.627939e+000,1.493530e+001,-1.154917e-002
7.579286e-001,4.827023e-001,3.624840e+000,1.493530e+001,-1.154917e-002
7.598571e-001,4.765048e-001,3.620192e+000,1.493685e+001,-1.154917e-002
7.617857e-001,4.718567e-001,3.618643e+000,1.493220e+001,-1.154917e-002
7.637143e-001,4.672085e-001,3.617093e+000,1.493375e+001,-1.154917e-002
7.656429e-001,4.687579e-001,3.617093e+000,1.493220e+001,-9.999795e-003
7.675714e-001,4.687579e-001,3.613995e+000,1.492910e+001,-9.999795e-003
7.695000e-001,4.703073e-001,3.610896e+000,1.493065e+001,-9.999795e-003
7.714286e-001,4.734060e-001,3.609346e+000,1.492910e+001,-1.154917e-002
7.733571e-001,4.796036e-001,3.607797e+000,1.492910e+001,-9.999795e-003
7.752857e-001,4.811529e-001,3.603149e+000,1.493065e+001,-9.999795e-003
7.772143e-001,4.734060e-001,3.595402e+000,1.493220e+001,-9.999795e-003
7.791429e-001,4.672085e-001,3.587655e+000,1.493065e+001,-1.154917e-002
7.810714e-001,4.625604e-001,3.584556e+000,1.493220e+001,-1.154917e-002
7.830000e-001,4.594616e-001,3.583007e+000,1.493220e+001,-1.154917e-002
7.849286e-001,4.563629e-001,3.581458e+000,1.493220e+001,-9.999795e-003
7.868571e-001,4.517148e-001,3.578359e+000,1.493065e+001,-1.154917e-002
7.887857e-001,4.455172e-001,3.578359e+000,1.493065e+001,-9.999795e-003
7.907143e-001,4.408691e-001,3.576809e+000,1.493375e+001,-9.999795e-003
7.926429e-001,4.393197e-001,3.575260e+000,1.493220e+001,-1.154917e-002
7.945714e-001,4.424185e-001,3.575260e+000,1.493220e+001,-1.154917e-002
7.965000e-001,4.470666e-001,3.575260e+000,1.493220e+001,-9.999795e-003
7.984286e-001,4.486160e-001,3.573711e+000,1.493685e+001,-1.154917e-002
8.003571e-001,4.563629e-001,3.575260e+000,1.493685e+001,-1.154917e-002
8.022857e-001,4.594616e-001,3.573711e+000,1.493685e+001,-9.999795e-003
8.042143e-001,4.672085e-001,3.573711e+000,1.493840e+001,-1.154917e-002
8.061429e-001,4.734060e-001,3.572161e+000,1.493685e+001,-9.999795e-003
8.080714e-001,4.641098e-001,3.570612e+000,1.493685e+001,-9.999795e-003
8.100000e-001,4.501654e-001,3.570612e+000,1.493840e+001,-1.309855e-002
8.119286e-001,4.455172e-001,3.569063e+000,1.494149e+001,-9.999795e-003
8.138571e-001,4.408691e-001,3.569063e+000,1.494149e+001,-9.999795e-003
8.157857e-001,4.362210e-001,3.570612e+000,1.494149e+001,-1.154917e-002
8.177143e-001,4.331222e-001,3.570612e+000,1.494149e+001,-9.999795e-003
8.196429e-001,4.424185e-001,3.569063e+000,1.494149e+001,-9.999795e-003
8.215714e-001,4.548135e-001,3.567513e+000,1.494149e+001,-1.309855e-002
8.235000e-001,4.625604e-001,3.565964e+000,1.494149e+001,-9.999795e-003
8.254286e-001,4.687579e-001,3.562865e+000,1.494149e+001,-1.154917e-002
8.273571e-001,4.734060e-001,3.558217e+000,1.493995e+001,-1.154917e-002
8.292857e-001,4.703073e-001,3.556668e+000,1.493995e+001,-1.154917e-002
8.312143e-001,4.656591e-001,3.552019e+000,1.493995e+001,-9.999795e-003
8.331429e-001,4.594616e-001,3.547371e+000,1.493995e+001,-9.999795e-003
8.350714e-001,4.532641e-001,3.541174e+000,1.493995e+001,-1.154917e-002
8.370000e-001,4.501654e-001,3.538075e+000,1.494149e+001,-1.154917e-002
8.389286e-001,4.517148e-001,3.534976e+000,1.494149e+001,-9.999795e-003
8.408571e-001,4.594616e-001,3.531878e+000,1.494304e+001,-1.154917e-002
8.427857e-001,4.687579e-001,3.531878e+000,1.494304e+001,-1.154917e-002
8.447143e-001,4.718567e-001,3.528779e+000,1.494304e+001,-1.154917e-002
8.466429e-001,4.734060e-001,3.527229e+000,1.493995e+001,-1.154917e-002
8.485714e-001,4.641098e-001,3.527229e+000,1.493995e+001,-1.154917e-002
8.505000e-001,4.548135e-001,3.522581e+000,1.493995e+001,-1.154917e-002
8.524286e-001,4.501654e-001,3.519483e+000,1.493995e+001,-1.154917e-002
8.543571e-001,4.501654e-001,3.517933e+000,1.494304e+001,-9.999795e-003
8.562857e-001,4.517148e-001,3.516384e+000,1.494149e+001,-1.154917e-002
8.582143e-001,4.548135e-001,3.514834e+000,1.494149e+001,-1.154917e-002
8.601429e-001,4.594616e-001,3.513285e+000,1.494149e+001,-1.154917e-002
8.620714e-001,4.641098e-001,3.510186e+000,1.494304e+001,-1.464793e-002
8.640000e-001,4.656591e-001,3.510186e+000,1.494459e+001,-1.154917e-002
8.659286e-001,4.579123e-001,3.511736e+000,1.494459e+001,-1.154917e-002
8.678571e-001,4.470666e-001,3.508637e+000,1.494459e+001,-1.154917e-002
8.697857e-001,4.362210e-001,3.507087e+000,1.494459e+001,-9.999795e-003
8.717143e-001,4.269247e-001,3.505538e+000,1.494459e+001,-9.999795e-003
8.736429e-001,4.238259e-001,3.503989e+000,1.494614e+001,-1.154917e-002
8.755714e-001,4.238259e-001,3.503989e+000,1.494459e+001,-1.154917e-002
8.775000e-001,4.253753e-001,3.502439e+000,1.494459e+001,-9.999795e-003
8.794286e-001,4.284741e-001,3.502439e+000,1.494459e+001,-1.154917e-002
8.813571e-001,4.315728e-001,3.503989e+000,1.494769e+001,-9.999795e-003
8.832857e-001,4.362210e-001,3.503989e+000,1.494459e+001,-1.154917e-002
8.852143e-001,4.377703e-001,3.503989e+000,1.494459e+001,-9.999795e-003
8.871429e-001,4.377703e-001,3.505538e+000,1.494149e+001,-1.154917e-002
8.890714e-001,4.362210e-001,3.505538e+000,1.494149e+001,-1.154917e-002
8.910000e-001,4.346716e-001,3.507087e+000,1.494149e+001,-1.154917e-002
8.929286e-001,4.300235e-001,3.508637e+000,1.494149e+001,-1.154917e-002
8.948571e-001,4.315728e-001,3.510186e+000,1.494149e+001,-9.999795e-003
8.967857e-001,4.331222e-001,3.510186e+000,1.494149e+001,-1.154917e-002
8.987143e-001,4.346716e-001,3.510186e+000,1.494149e+001,-1.154917e-002
9.006429e-001,4.362210e-001,3.510186e+000,1.494304e+001,-9.999795e-003
9.025714e-001,4.377703e-001,3.511736e+000,1.494304e+001,-9.999795e-003
9.045000e-001,4.439678e-001,3.511736e+000,1.494614e+001,-1.309855e-002
9.064286e-001,4.486160e-001,3.511736e+000,1.494924e+001,-1.154917e-002
9.083571e-001,4.548135e-001,3.510186e+000,1.494769e+001,-9.999795e-003
9.102857e-001,4.579123e-001,3.511736e+000,1.494924e+001,-9.999795e-003
9.122143e-001,4.594616e-001,3.510186e+000,1.494924e+001,-1.154917e-002
9.141429e-001,4.625604e-001,3.511736e+000,1.495079e+001,-1.154917e-002
9.160714e-001,4.625604e-001,3.511736e+000,1.495234e+001,-9.999795e-003
9.180000e-001,4.656591e-001,3.510186e+000,1.495234e+001,-9.999795e-003
9.199286e-001,4.641098e-001,3.510186e+000,1.495389e+001,-9.999795e-003
9.218571e-001,4.687579e-001,3.510186e+000,1.495079e+001,-9.999795e-003
9.237857e-001,4.749554e-001,3.511736e+000,1.495234e+001,-8.450417e-003
9.257143e-001,4.858011e-001,3.511736e+000,1.495389e+001,-1.154917e-002
9.276429e-001,4.919986e-001,3.514834e+000,1.495389e+001,-1.154917e-002
9.295714e-001,4.966467e-001,3.519483e+000,1.495389e+001,-1.154917e-002
9.315000e-001,5.012949e-001,3.522581e+000,1.495699e+001,-9.999795e-003
9.334286e-001,5.012949e-001,3.525680e+000,1.495854e+001,-9.999795e-003
9.353571e-001,5.043936e-001,3.528779e+000,1.495854e+001,-9.999795e-003
9.372857e-001,5.059429e-001,3.530328e+000,1.496164e+001,-1.154917e-002
9.392143e-001,5.059429e-001,3.531878e+000,1.496009e+001,-1.154917e-002
9.411429e-001,5.074924e-001,3.536526e+000,1.496164e+001,-1.154917e-002
9.430714e-001,5.074924e-001,3.536526e+000,1.496009e+001,-1.154917e-002
9.450000e-001,5.121405e-001,3.539624e+000,1.496009e+001,-1.154917e-002
9.469286e-001,5.121405e-001,3.541174e+000,1.496319e+001,-1.154917e-002
9.488571e-001,5.167886e-001,3.542723e+000,1.496319e+001,-9.999795e-003
9.507857e-001,5.245355e-001,3.542723e+000,1.496474e+001,-9.999795e-003
9.527143e-001,5.353811e-001,3.547371e+000,1.496319e+001,-9.999795e-003
9.546429e-001,5.431280e-001,3.550470e+000,1.496474e+001,-1.154917e-002
9.565714e-001,5.477762e-001,3.553569e+000,1.496628e+001,-1.154917e-002
9.585000e-001,5.477762e-001,3.558217e+000,1.496474e+001,-1.154917e-002
9.604286e-001,5.477762e-001,3.562865e+000,1.496474e+001,-1.154917e-002
9.623571e-001,5.462268e-001,3.562865e+000,1.496628e+001,-8.450417e-003
9.642857e-001,5.446774e-001,3.562865e+000,1.496628e+001,-1.154917e-002
9.662143e-001,5.477762e-001,3.565964e+000,1.496319e+001,-9.999795e-003
9.681429e-001,5.477762e-001,3.565964e+000,1.496319e+001,-1.154917e-002
9.700714e-001,5.462268e-001,3.565964e+000,1.496319e+001,-1.309855e-002
9.720000e-001,5.462268e-001,3.569063e+000,1.496319e+001,-9.999795e-003
9.739286e-001,5.431280e-001,3.573711e+000,1.496319e+001,-9.999795e-003
9.758571e-001,5.477762e-001,3.576809e+000,1.496628e+001,-1.154917e-002
9.777857e-001,5.524243e-001,3.578359e+000,1.496628e+001,-1.154917e-002
9.797143e-001,5.539737e-001,3.579908e+000,1.496628e+001,-9.999795e-003
9.816429e-001,5.524243e-001,3.581458e+000,1.496474e+001,-1.154917e-002
9.835714e-001,5.477762e-001,3.579908e+000,1.496164e+001,-9.999795e-003
9.855000e-001,5.477762e-001,3.581458e+000,1.496164e+001,-9.999795e-003
9.874286e-001,5.493255e-001,3.581458e+000,1.496319e+001,-9.999795e-003
9.893571e-001,5.555230e-001,3.583007e+000,1.496319e+001,-1.154917e-002
9.912857e-001,5.570724e-001,3.583007e+000,1.496319e+001,-9.999795e-003
9.932143e-001,5.617206e-001,3.583007e+000,1.496164e+001,-9.999795e-003
9.951429e-001,5.663687e-001,3.584556e+000,1.496319e+001,-1.154917e-002
9.970714e-001,5.694674e-001,3.586106e+000,1.496164e+001,-1.154917e-002
9.990000e-001,5.710168e-001,3.586106e+000,1.496009e+001,-1.154917e-002
1.000929e+000,5.710168e-001,3.587655e+000,1.496164e+001,-9.999795e-003
1.002857e+000,5.694674e-001,3.584556e+000,1.496319e+001,-1.154917e-002
1.004786e+000,5.710168e-001,3.587655e+000,1.496164e+001,-9.999795e-003
1.006714e+000,5.756649e-001,3.587655e+000,1.496319e+001,-9.999795e-003
1.008643e+000,5.803131e-001,3.590754e+000,1.496164e+001,-1.154917e-002
1.010571e+000,5.818624e-001,3.589205e+000,1.496164e+001,-1.154917e-002
1.012500e+000,5.803131e-001,3.590754e+000,1.496319e+001,-1.154917e-002
1.014429e+000,5.756649e-001,3.592303e+000,1.496319e+001,-1.154917e-002
1.016357e+000,5.756649e-001,3.590754e+000,1.496319e+001,-9.999795e-003
1.018286e+000,5.741156e-001,3.592303e+000,1.496319e+001,-9.999795e-003
1.020214e+000,5.694674e-001,3.593853e+000,1.496319e+001,-1.154917e-002
1.022143e+000,5.679181e-001,3.593853e+000,1.496474e+001,-9.999795e-003
1.024071e+000,5.679181e-001,3.592303e+000,1.496319e+001,-1.154917e-002
1.026000e+000,5.679181e-001,3.592303e+000,1.496319e+001,-9.999795e-003
1.027929e+000,5.694674e-001,3.592303e+000,1.496009e+001,-1.154917e-002
1.029857e+000,5.710168e-001,3.592303e+000,1.495854e+001,-1.154917e-002
1.031786e+000,5.694674e-001,3.590754e+000,1.496164e+001,-1.154917e-002
1.033714e+000,5.710168e-001,3.590754e+000,1.496164e+001,-1.154917e-002
1.035643e+000,5.772144e-001,3.590754e+000,1.495854e+001,-1.154917e-002
1.037571e+000,5.880600e-001,3.592303e+000,1.496009e+001,-1.154917e-002
1.039500e+000,5.989056e-001,3.593853e+000,1.496164e+001,-9.999795e-003
1.041429e+000,6.066525e-001,3.596951e+000,1.496319e+001,-1.154917e-002
1.043357e+000,6.082019e-001,3.596951e+000,1.496319e+001,-1.154917e-002
1.045286e+000,6.066525e-001,3.600050e+000,1.496474e+001,-9.999795e-003
1.047214e+000,6.051031e-001,3.601599e+000,1.496783e+001,-9.999795e-003
1.049143e+000,6.066525e-001,3.604698e+000,1.496938e+001,-8.450417e-003
1.051071e+000,6.051031e-001,3.606248e+000,1.496783e+001,-1.154917e-002
1.053000e+000,6.066525e-001,3.609346e+000,1.496938e+001,-1.154917e-002
1.054929e+000,6.066525e-001,3.615544e+000,1.496938e+001,-9.999795e-003
1.056857e+000,6.097513e-001,3.623291e+000,1.497093e+001,-9.999795e-003
1.058786e+000,6.113006e-001,3.624840e+000,1.497248e+001,-1.154917e-002
1.060714e+000,6.128500e-001,3.627939e+000,1.497248e+001,-9.999795e-003
1.062643e+000,6.143994e-001,3.631038e+000,1.497403e+001,-1.154917e-002
1.064571e+000,6.159488e-001,3.629488e+000,1.497248e+001,-1.154917e-002
1.066500e+000,6.128500e-001,3.629488e+000,1.497248e+001,-1.154917e-002
1.068429e+000,6.128500e-001,3.629488e+000,1.497248e+001,-9.999795e-003
1.070357e+000,6.143994e-001,3.627939e+000,1.497093e+001,-9.999795e-003
1.072286e+000,6.128500e-001,3.629488e+000,1.497093e+001,-9.999795e-003
1.074214e+000,6.143994e-001,3.631038e+000,1.497093e+001,-1.154917e-002
1.076143e+000,6.128500e-001,3.631038e+000,1.497093e+001,-8.450417e-003
1.078071e+000,6.128500e-001,3.631038e+000,1.497248e+001,-1.154917e-002
1.080000e+000,6.128500e-001,3.634136e+000,1.497248e+001,-9.999795e-003
1.081929e+000,6.128500e-001,3.635686e+000,1.497248e+001,-1.154917e-002
1.083857e+000,6.143994e-001,3.635686e+000,1.497248e+001,-1.154917e-002
1.085786e+000,6.159488e-001,3.637235e+000,1.497403e+001,-1.154917e-002
1.087714e+000,6.174982e-001,3.637235e+000,1.497558e+001,-9.999795e-003
1.089643e+000,6.190475e-001,3.638785e+000,1.497403e+001,-1.154917e-002
1.091571e+000,6.190475e-001,3.635686e+000,1.497558e+001,-1.309855e-002
1.093500e+000,6.190475e-001,3.635686e+000,1.497713e+001,-9.999795e-003
1.095429e+000,6.205969e-001,3.634136e+000,1.497868e+001,-9.999795e-003
1.097357e+000,6.221463e-001,3.634136e+000,1.497868e+001,-1.154917e-002
1.099286e+000,6.236957e-001,3.634136e+000,1.498023e+001,-9.999795e-003
1.101214e+000,6.205969e-001,3.634136e+000,1.498178e+001,-1.154917e-002
1.103143e+000,6.205969e-001,3.634136e+000,1.498488e+001,-1.154917e-002
1.105071e+000,6.221463e-001,3.634136e+000,1.498488e+001,-1.154917e-002
1.107000e+000,6.221463e-001,3.635686e+000,1.499107e+001,-1.154917e-002
1.108929e+000,6.205969e-001,3.635686e+000,1.499107e+001,-1.154917e-002
1.110857e+000,6.221463e-001,3.635686e+000,1.498953e+001,-9.999795e-003
1.112786e+000,6.221463e-001,3.634136e+000,1.499107e+001,-9.999795e-003
1.114714e+000,6.221463e-001,3.634136e+000,1.499262e+001,-9.999795e-003
1.116643e+000,6.236957e-001,3.632587e+000,1.499727e+001,-1.154917e-002
1.118571e+000,6.205969e-001,3.632587e+000,1.499417e+001,-1.309855e-002
1.120500e+000,6.221463e-001,3.631038e+000,1.499882e+001,-1.154917e-002
1.122429e+000,6.174982e-001,3.631038e+000,1.499882e+001,-1.154917e-002
1.124357e+000,6.174982e-001,3.627939e+000,1.500037e+001,-9.999795e-003
1.126286e+000,6.159488e-001,3.626390e+000,1.500347e+001,-9.999795e-003
1.128214e+000,6.128500e-001,3.627939e+000,1.500502e+001,-9.999795e-003
1.130143e+000,6.128500e-001,3.624840e+000,1.500502e+001,-9.999795e-003
1.132071e+000,6.097513e-001,3.621742e+000,1.500657e+001,-1.154917e-002
1.134000e+000,6.051031e-001,3.620192e+000,1.500967e+001,-9.999795e-003
1.135929e+000,6.004550e-001,3.618643e+000,1.500967e+001,-9.999795e-003
1.137857e+000,5.989056e-001,3.618643e+000,1.501432e+001,-1.154917e-002
1.139786e+000,5.880600e-001,3.618643e+000,1.501586e+001,-1.154917e-002
1.141714e+000,5.803131e-001,3.613995e+000,1.501586e+001,-1.154917e-002
1.143643e+000,5.756649e-001,3.609346e+000,1.501741e+001,-1.309855e-002
1.145571e+000,5.710168e-001,3.603149e+000,1.501896e+001,-1.309855e-002
1.147500e+000,5.694674e-001,3.598501e+000,1.501896e+001,-9.999795e-003
1.149429e+000,5.679181e-001,3.596951e+000,1.502206e+001,-9.999795e-003
1.151357e+000,5.632699e-001,3.593853e+000,1.502361e+001,-9.999795e-003
1.153286e+000,5.617206e-001,3.592303e+000,1.502516e+001,-1.154917e-002
1.155214e+000,5.586218e-001,3.590754e+000,1.502516e+001,-9.999795e-003
1.157143e+000,5.555230e-001,3.589205e+000,1.502826e+001,-9.999795e-003
1.159071e+000,5.555230e-001,3.587655e+000,1.502981e+001,-1.309855e-002
1.161000e+000,5.508749e-001,3.587655e+000,1.503136e+001,-1.154917e-002
1.162929e+000,5.477762e-001,3.586106e+000,1.503136e+001,-1.154917e-002
1.164857e+000,5.493255e-001,3.586106e+000,1.503136e+001,-1.154917e-002
1.166786e+000,5.477762e-001,3.584556e+000,1.503446e+001,-9.999795e-003
1.168714e+000,5.462268e-001,3.584556e+000,1.503136e+001,-9.999795e-003
1.170643e+000,5.462268e-001,3.584556e+000,1.503446e+001,-9.999795e-003
1.172571e+000,5.477762e-001,3.586106e+000,1.503291e+001,-1.154917e-002
1.174500e+000,5.477762e-001,3.584556e+000,1.503446e+001,-9.999795e-003
1.176429e+000,5.477762e-001,3.581458e+000,1.503601e+001,-1.309855e-002
1.178357e+000,5.508749e-001,3.583007e+000,1.503601e+001,-9.999795e-003
1.180286e+000,5.508749e-001,3.581458e+000,1.503446e+001,-1.154917e-002
1.182214e+000,5.539737e-001,3.581458e+000,1.503756e+001,-1.154917e-002
1.184143e+000,5.570724e-001,3.578359e+000,1.503756e+001,-1.154917e-002
1.186071e+000,5.632699e-001,3.578359e+000,1.503756e+001,-1.154917e-002
1.188000e+000,5.648193e-001,3.578359e+000,1.504066e+001,-9.999795e-003
1.189929e+000,5.648193e-001,3.578359e+000,1.504066e+001,-1.154917e-002
1.191857e+000,5.663687e-001,3.575260e+000,1.504375e+001,-1.154917e-002
1.193786e+000,5.648193e-001,3.575260e+000,1.504685e+001,-9.999795e-003
1.195714e+000,5.648193e-001,3.573711e+000,1.504840e+001,-1.309855e-002
1.197643e+000,5.601712e-001,3.575260e+000,1.504840e+001,-8.450417e-003
1.199571e+000,5.539737e-001,3.573711e+000,1.504840e+001,-1.154917e-002
1.201500e+000,5.508749e-001,3.572161e+000,1.504995e+001,-1.154917e-002
1.203429e+000,5.477762e-001,3.572161e+000,1.505150e+001,-1.154917e-002
1.205357e+000,5.477762e-001,3.572161e+000,1.505615e+001,-1.154917e-002
1.207286e+000,5.508749e-001,3.570612e+000,1.505460e+001,-9.999795e-003
1.209214e+000,5.508749e-001,3.569063e+000,1.505615e+001,-1.154917e-002
1.211143e+000,5.508749e-001,3.567513e+000,1.505615e+001,-9.999795e-003
1.213071e+000,5.493255e-001,3.565964e+000,1.505460e+001,-1.154917e-002
1.215000e+000,5.477762e-001,3.565964e+000,1.505615e+001,-9.999795e-003
1.216929e+000,5.462268e-001,3.565964e+000,1.505615e+001,-1.154917e-002
1.218857e+000,5.462268e-001,3.565964e+000,1.505770e+001,-9.999795e-003
1.220786e+000,5.446774e-001,3.567513e+000,1.505770e+001,-8.450417e-003
1.222714e+000,5.431280e-001,3.567513e+000,1.505770e+001,-1.309855e-002
1.224643e+000,5.400293e-001,3.567513e+000,1.505615e+001,-1.154917e-002
1.226571e+000,5.384799e-001,3.564415e+000,1.505615e+001,-1.154917e-002
1.228500e+000,5.353811e-001,3.565964e+000,1.505770e+001,-9.999795e-003
1.230429e+000,5.322824e-001,3.564415e+000,1.505615e+001,-9.999795e-003
1.232357e+000,5.322824e-001,3.564415e+000,1.505615e+001,-9.999795e-003
1.234286e+000,5.307330e-001,3.564415e+000,1.505615e+001,-1.154917e-002
1.236214e+000,5.307330e-001,3.565964e+000,1.505615e+001,-1.154917e-002
1.238143e+000,5.307330e-001,3.564415e+000,1.505615e+001,-1.154917e-002
1.240071e+000,5.322824e-001,3.565964e+000,1.505615e+001,-9.999795e-003
1.242000e+000,5.353811e-001,3.562865e+000,1.505460e+001,-1.154917e-002
1.243929e+000,5.338318e-001,3.562865e+000,1.505615e+001,-9.999795e-003
1.245857e+000,5.353811e-001,3.562865e+000,1.505615e+001,-1.154917e-002
1.247786e+000,5.353811e-001,3.559766e+000,1.505305e+001,-1.154917e-002
1.249714e+000,5.338318e-001,3.559766e+000,1.505305e+001,-9.999795e-003
1.251643e+000,5.338318e-001,3.561316e+000,1.505305e+001,-9.999795e-003
1.253571e+000,5.353811e-001,3.559766e+000,1.505150e+001,-1.154917e-002
1.255500e+000,5.338318e-001,3.561316e+000,1.505305e+001,-1.154917e-002
1.257429e+000,5.322824e-001,3.561316e+000,1.505305e+001,-9.999795e-003
1.259357e+000,5.338318e-001,3.559766e+000,1.505150e+001,-1.154917e-002
1.261286e+000,5.338318e-001,3.561316e+000,1.505305e+001,-1.154917e-002
1.263214e+000,5.307330e-001,3.559766e+000,1.505150e+001,-9.999795e-003
1.265143e+000,5.322824e-001,3.559766e+000,1.505150e+001,-9.999795e-003
1.267071e+000,5.307330e-001,3.561316e+000,1.504995e+001,-1.154917e-002
1.269000e+000,5.307330e-001,3.562865e+000,1.504995e+001,-1.154917e-002
1.270929e+000,5.291836e-001,3.561316e+000,1.504995e+001,-8.450417e-003
1.272857e+000,5.307330e-001,3.562865e+000,1.504840e+001,-1.154917e-002
1.274786e+000,5.322824e-001,3.562865e+000,1.504995e+001,-1.154917e-002
1.276714e+000,5.307330e-001,3.561316e+000,1.505305e+001,-1.154917e-002
1.278643e+000,5.307330e-001,3.562865e+000,1.505305e+001,-9.999795e-003
1.280571e+000,5.322824e-001,3.562865e+000,1.505615e+001,-9.999795e-003
1.282500e+000,5.307330e-001,3.562865e+000,1.505460e+001,-9.999795e-003
1.284429e+000,5.291836e-001,3.564415e+000,1.505615e+001,-9.999795e-003
1.286357e+000,5.322824e-001,3.562865e+000,1.505460e+001,-1.154917e-002
1.288286e+000,5.353811e-001,3.565964e+000,1.505460e+001,-1.154917e-002
1.290214e+000,5.384799e-001,3.565964e+000,1.505460e+001,-9.999795e-003
1.292143e+000,5.400293e-001,3.565964e+000,1.505460e+001,-9.999795e-003
1.294071e+000,5.415787e-001,3.565964e+000,1.505615e+001,-1.309855e-002
1.296000e+000,5.446774e-001,3.565964e+000,1.505460e+001,-1.154917e-002
1.297929e+000,5.446774e-001,3.565964e+000,1.505305e+001,-1.154917e-002
1.299857e+000,5.446774e-001,3.567513e+000,1.505460e+001,-1.154917e-002
1.301786e+000,5.462268e-001,3.569063e+000,1.505460e+001,-1.154917e-002
1.303714e+000,5.462268e-001,3.567513e+000,1.505615e+001,-1.154917e-002
1.305643e+000,5.446774e-001,3.565964e+000,1.505460e+001,-9.999795e-003
1.307571e+000,5.477762e-001,3.569063e+000,1.505460e+001,-1.154917e-002
1.309500e+000,5.477762e-001,3.567513e+000,1.505615e+001,-9.999795e-003
1.311429e+000,5.477762e-001,3.569063e+000,1.505615e+001,-1.154917e-002
1.313357e+000,5.493255e-001,3.567513e+000,1.505615e+001,-9.999795e-003
1.315286e+000,5.508749e-001,3.569063e+000,1.505460e+001,-9.999795e-003
1.317214e+000,5.493255e-001,3.567513e+000,1.505305e+001,-9.999795e-003
1.319143e+000,5.524243e-001,3.569063e+000,1.505150e+001,-9.999795e-003
1.321071e+000,5.524243e-001,3.569063e+000,1.505305e+001,-1.309855e-002
1.323000e+000,5.539737e-001,3.572161e+000,1.505460e+001,-1.154917e-002
1.324929e+000,5.524243e-001,3.572161e+000,1.505770e+001,-1.154917e-002
1.326857e+000,5.555230e-001,3.575260e+000,1.505770e+001,-9.999795e-003
1.328786e+000,5.555230e-001,3.576809e+000,1.505925e+001,-9.999795e-003
1.330714e+000,5.539737e-001,3.576809e+000,1.505770e+001,-1.154917e-002
1.332643e+000,5.555230e-001,3.578359e+000,1.505770e+001,-1.154917e-002
1.334571e+000,5.570724e-001,3.578359e+000,1.505305e+001,-1.154917e-002
1.336500e+000,5.570724e-001,3.578359e+000,1.505460e+001,-1.154917e-002
1.338429e+000,5.555230e-001,3.579908e+000,1.505150e+001,-1.154917e-002
1.340357e+000,5.555230e-001,3.579908e+000,1.505460e+001,-9.999795e-003
1.342286e+000,5.586218e-001,3.579908e+000,1.505460e+001,-1.154917e-002
1.344214e+000,5.570724e-001,3.581458e+000,1.505460e+001,-1.154917e-002
1.346143e+000,5.586218e-001,3.579908e+000,1.505305e+001,-1.154917e-002
1.348071e+000,5.586218e-001,3.578359e+000,1.505305e+001,-1.309855e-002
1.350000e+000,5.601712e-001,3.578359e+000,1.505460e+001,-1.154917e-002
1.351929e+000,5.601712e-001,3.578359e+000,1.505460e+001,-9.999795e-003
1.353857e+000,5.632699e-001,3.579908e+000,1.505460e+001,-1.154917e-002
1.355786e+000,5.632699e-001,3.578359e+000,1.505460e+001,-9.999795e-003
1.357714e+000,5.617206e-001,3.578359e+000,1.505460e+001,-1.154917e-002
1.359643e+000,5.632699e-001,3.581458e+000,1.505460e+001,-1.154917e-002
1.361571e+000,5.632699e-001,3.583007e+000,1.505615e+001,-9.999795e-003
1.363500e+000,5.632699e-001,3.583007e+000,1.505615e+001,-9.999795e-003
1.365429e+000,5.617206e-001,3.583007e+000,1.505460e+001,-1.154917e-002
1.367357e+000,5.632699e-001,3.583007e+000,1.505305e+001,-9.999795e-003
1.369286e+000,5.632699e-001,3.581458e+000,1.505460e+001,-1.154917e-002
1.371214e+000,5.617206e-001,3.579908e+000,1.505460e+001,-9.999795e-003
1.373143e+000,5.601712e-001,3.581458e+000,1.505460e+001,-9.999795e-003
1.375071e+000,5.617206e-001,3.579908e+000,1.505305e+001,-9.999795e-003
1.377000e+000,5.632699e-001,3.581458e+000,1.505615e+001,-9.999795e-003
1.378929e+000,5.617206e-001,3.581458e+000,1.505615e+001,-1.154917e-002
1.380857e+000,5.632699e-001,3.581458e+000,1.505460e+001,-9.999795e-003
1.382786e+000,5.663687e-001,3.578359e+000,1.505460e+001,-1.154917e-002
1.384714e+000,5.632699e-001,3.581458e+000,1.505305e+001,-1.154917e-002
1.386643e+000,5.632699e-001,3.579908e+000,1.505305e+001,-9.999795e-003
1.388571e+000,5.617206e-001,3.581458e+000,1.505305e+001,-1.154917e-002
1.390500e+000,5.632699e-001,3.581458e+000,1.505305e+001,-9.999795e-003
1.392429e+000,5.586218e-001,3.581458e+000,1.505305e+001,-9.999795e-003
1.394357e+000,5.601712e-001,3.581458e+000,1.505305e+001,-9.999795e-003
1.396286e+000,5.586218e-001,3.579908e+000,1.505305e+001,-9.999795e-003
1.398214e+000,5.570724e-001,3.578359e+000,1.505615e+001,-9.999795e-003
1.400143e+000,5.539737e-001,3.579908e+000,1.505615e+001,-1.154917e-002
1.402071e+000,5.524243e-001,3.578359e+000,1.505460e+001,-1.154917e-002
1.404000e+000,5.524243e-001,3.578359e+000,1.505615e+001,-9.999795e-003
1.405929e+000,5.493255e-001,3.578359e+000,1.505615e+001,-1.154917e-002
1.407857e+000,5.508749e-001,3.576809e+000,1.505615e+001,-9.999795e-003
1.409786e+000,5.493255e-001,3.578359e+000,1.505615e+001,-1.154917e-002
1.411714e+000,5.493255e-001,3.578359e+000,1.505925e+001,-9.999795e-003
1.413643e+000,5.493255e-001,3.578359e+000,1.505615e+001,-9.999795e-003
1.415571e+000,5.493255e-001,3.578359e+000,1.505615e+001,-1.309855e-002
1.417500e+000,5.477762e-001,3.579908e+000,1.505615e+001,-9.999795e-003
1.419429e+000,5.493255e-001,3.578359e+000,1.505615e+001,-1.154917e-002
1.421357e+000,5.493255e-001,3.576809e+000,1.505615e+001,-1.154917e-002
1.423286e+000,5.508749e-001,3.578359e+000,1.505770e+001,-1.154917e-002
1.425214e+000,5.508749e-001,3.575260e+000,1.505615e+001,-1.154917e-002
1.427143e+000,5.508749e-001,3.576809e+000,1.505770e+001,-1.154917e-002
1.429071e+000,5.493255e-001,3.576809e+000,1.505770e+001,-1.154917e-002
1.431000e+000,5.477762e-001,3.578359e+000,1.506080e+001,-9.999795e-003
1.432929e+000,5.446774e-001,3.578359e+000,1.506080e+001,-9.999795e-003
1.434857e+000,5.400293e-001,3.576809e+000,1.506080e+001,-1.154917e-002
1.436786e+000,5.369305e-001,3.578359e+000,1.506080e+001,-9.999795e-003
1.438714e+000,5.353811e-001,3.579908e+000,1.506080e+001,-1.309855e-002
1.440643e+000,5.353811e-001,3.578359e+000,1.505925e+001,-9.999795e-003
1.442571e+000,5.338318e-001,3.578359e+000,1.505770e+001,-1.464793e-002
1.444500e+000,5.353811e-001,3.576809e+000,1.505770e+001,-1.154917e-002
1.446429e+000,5.353811e-001,3.576809e+000,1.505925e+001,-9.999795e-003
1.448357e+000,5.369305e-001,3.578359e+000,1.505925e+001,-1.154917e-002
1.450286e+000,5.384799e-001,3.578359e+000,1.505770e+001,-1.154917e-002
1.452214e+000,5.415787e-001,3.576809e+000,1.505925e+001,-9.999795e-003
1.454143e+000,5.446774e-001,3.578359e+000,1.505770e+001,-1.154917e-002
1.456071e+000,5.446774e-001,3.575260e+000,1.505615e+001,-1.154917e-002
1.458000e+000,5.477762e-001,3.576809e+000,1.505615e+001,-1.154917e-002
1.459929e+000,5.493255e-001,3.578359e+000,1.505615e+001,-9.999795e-003
1.461857e+000,5.493255e-001,3.578359e+000,1.505615e+001,-1.154917e-002
1.463786e+000,5.508749e-001,3.576809e+000,1.505615e+001,-9.999795e-003
1.465714e+000,5.508749e-001,3.576809e+000,1.505305e+001,-9.999795e-003
1.467643e+000,5.508749e-001,3.576809e+000,1.505305e+001,-9.999795e-003
1.469571e+000,5.524243e-001,3.576809e+000,1.505305e+001,-9.999795e-003
1.471500e+000,5.524243e-001,3.576809e+000,1.505305e+001,-1.154917e-002
1.473429e+000,5.508749e-001,3.578359e+000,1.505305e+001,-1.154917e-002
1.475357e+000,5.524243e-001,3.576809e+000,1.505460e+001,-1.154917e-002
1.477286e+000,5.524243e-001,3.578359e+000,1.505305e+001,-9.999795e-003
1.479214e+000,5.508749e-001,3.578359e+000,1.505305e+001,-9.999795e-003
1.481143e+000,5.508749e-001,3.578359e+000,1.505150e+001,-1.154917e-002
1.483071e+000,5.524243e-001,3.578359e+000,1.505150e+001,-1.154917e-002
1.485000e+000,5.524243e-001,3.576809e+000,1.505305e+001,-9.999795e-003
1.486929e+000,5.524243e-001,3.579908e+000,1.505150e+001,-9.999795e-003
1.488857e+000,5.539737e-001,3.579908e+000,1.505305e+001,-9.999795e-003
1.490786e+000,5.524243e-001,3.578359e+000,1.505305e+001,-1.309855e-002
1.492714e+000,5.539737e-001,3.579908e+000,1.504995e+001,-1.154917e-002
1.494643e+000,5.539737e-001,3.581458e+000,1.505305e+001,-9.999795e-003
1.496571e+000,5.524243e-001,3.581458e+000,1.505150e+001,-1.154917e-002
1.498500e+000,5.524243e-001,3.579908e+000,1.505305e+001,-9.999795e-003
1.500429e+000,5.524243e-001,3.579908e+000,1.505615e+001,-1.154917e-002
1.502357e+000,5.524243e-001,3.576809e+000,1.505615e+001,-9.999795e-003
1.504286e+000,5.539737e-001,3.576809e+000,1.505615e+001,-9.999795e-003
1.506214e+000,5.524243e-001,3.576809e+000,1.505460e+001,-1.154917e-002
1.508143e+000,5.539737e-001,3.575260e+000,1.505460e+001,-9.999795e-003
1.510071e+000,5.539737e-001,3.573711e+000,1.504995e+001,-1.154917e-002
1.512000e+000,5.524243e-001,3.572161e+000,1.504840e+001,-1.154917e-002
1.513929e+000,5.539737e-001,3.572161e+000,1.504685e+001,-1.154917e-002
1.515857e+000,5.539737e-001,3.572161e+000,1.504375e+001,-1.154917e-002
1.517786e+000,5.539737e-001,3.570612e+000,1.504375e+001,-1.154917e-002
1.519714e+000,5.539737e-001,3.572161e+000,1.504220e+001,-1.309855e-002
1.521643e+000,5.524243e-001,3.572161e+000,1.503911e+001,-1.154917e-002
1.523571e+000,5.524243e-001,3.572161e+000,1.503911e+001,-1.154917e-002
1.525500e+000,5.539737e-001,3.573711e+000,1.503601e+001,-9.999795e-003
1.527429e+000,5.524243e-001,3.575260e+000,1.503446e+001,-9.999795e-003
1.529357e+000,5.539737e-001,3.573711e+000,1.503446e+001,-1.154917e-002
1.531286e+000,5.539737e-001,3.573711e+000,1.503291e+001,-9.999795e-003
1.533214e+000,5.539737e-001,3.572161e+000,1.503291e+001,-1.154917e-002
1.535143e+000,5.539737e-001,3.572161e+000,1.503291e+001,-9.999795e-003
1.537071e+000,5.570724e-001,3.572161e+000,1.503291e+001,-1.309855e-002
1.539000e+000,5.570724e-001,3.572161e+000,1.503291e+001,-1.154917e-002
1.540929e+000,5.539737e-001,3.572161e+000,1.503291e+001,-9.999795e-003
1.542857e+000,5.570724e-001,3.573711e+000,1.503291e+001,-1.154917e-002
1.544786e+000,5.570724e-001,3.573711e+000,1.503291e+001,-1.154917e-002
1.546714e+000,5.601712e-001,3.573711e+000,1.503136e+001,-1.154917e-002
1.548643e+000,5.601712e-001,3.575260e+000,1.502981e+001,-1.154917e-002
1.550571e+000,5.632699e-001,3.575260e+000,1.503136e+001,-1.154917e-002
1.552500e+000,5.617206e-001,3.575260e+000,1.503136e+001,-1.309855e-002
1.554429e+000,5.601712e-001,3.575260e+000,1.503136e+001,-9.999795e-003
1.556357e+000,5.632699e-001,3.573711e+000,1.503136e+001,-1.154917e-002
1.558286e+000,5.632699e-001,3.573711e+000,1.503136e+001,-9.999795e-003
1.560214e+000,5.632699e-001,3.573711e+000,1.503136e+001,-9.999795e-003
1.562143e+000,5.617206e-001,3.570612e+000,1.503291e+001,-9.999795e-003
1.564071e+000,5.617206e-001,3.575260e+000,1.503136e+001,-1.154917e-002
1.566000e+000,5.617206e-001,3.573711e+000,1.503291e+001,-9.999795e-003
1.567929e+000,5.617206e-001,3.573711e+000,1.503291e+001,-1.154917e-002
1.569857e+000,5.617206e-001,3.573711e+000,1.503291e+001,-9.999795e-003
1.571786e+000,5.601712e-001,3.573711e+000,1.502981e+001,-1.309855e-002
1.573714e+000,5.632699e-001,3.573711e+000,1.502981e+001,-9.999795e-003
1.575643e+000,5.632699e-001,3.575260e+000,1.502981e+001,-1.154917e-002
1.577571e+000,5.632699e-001,3.575260e+000,1.502981e+001,-1.154917e-002
1.579500e+000,5.632699e-001,3.573711e+000,1.502826e+001,-1.309855e-002
1.581429e+000,5.617206e-001,3.573711e+000,1.502516e+001,-1.154917e-002
1.583357e+000,5.601712e-001,3.573711e+000,1.502516e+001,-1.154917e-002
1.585286e+000,5.632699e-001,3.572161e+000,1.502361e+001,-9.999795e-003
1.587214e+000,5.632699e-001,3.572161e+000,1.502516e+001,-1.154917e-002
1.589143e+000,5.632699e-001,3.570612e+000,1.502361e+001,-1.154917e-002
1.591071e+000,5.617206e-001,3.569063e+000,1.502361e+001,-1.154917e-002
1.593000e+000,5.601712e-001,3.569063e+000,1.502516e+001,-1.154917e-002
1.594929e+000,5.617206e-001,3.569063e+000,1.502361e+001,-1.154917e-002
1.596857e+000,5.617206e-001,3.569063e+000,1.502206e+001,-1.154917e-002
1.598786e+000,5.632699e-001,3.565964e+000,1.501896e+001,-9.999795e-003
1.600714e+000,5.632699e-001,3.567513e+000,1.502361e+001,-8.450417e-003
1.602643e+000,5.632699e-001,3.569063e+000,1.502206e+001,-1.154917e-002
1.604571e+000,5.632699e-001,3.567513e+000,1.502516e+001,-1.154917e-002
1.606500e+000,5.632699e-001,3.565964e+000,1.502981e+001,-1.154917e-002
1.608429e+000,5.632699e-001,3.565964e+000,1.502826e+001,-9.999795e-003
1.610357e+000,5.632699e-001,3.562865e+000,1.502826e+001,-1.154917e-002
1.612286e+000,5.617206e-001,3.562865e+000,1.502826e+001,-1.154917e-002
1.614214e+000,5.617206e-001,3.561316e+000,1.502826e+001,-9.999795e-003
1.616143e+000,5.617206e-001,3.562865e+000,1.502671e+001,-9.999795e-003
1.618071e+000,5.601712e-001,3.559766e+000,1.502826e+001,-1.309855e-002
1.620000e+000,5.601712e-001,3.558217e+000,1.502981e+001,-1.154917e-002
1.621929e+000,5.555230e-001,3.559766e+000,1.502981e+001,-9.999795e-003
1.623857e+000,5.555230e-001,3.558217e+000,1.502671e+001,-9.999795e-003
1.625786e+000,5.555230e-001,3.559766e+000,1.502981e+001,-1.154917e-002
1.627714e+000,5.539737e-001,3.558217e+000,1.502981e+001,-9.999795e-003
1.629643e+000,5.555230e-001,3.559766e+000,1.502981e+001,-1.154917e-002
1.631571e+000,5.539737e-001,3.558217e+000,1.502981e+001,-1.154917e-002
1.633500e+000,5.539737e-001,3.559766e+000,1.503136e+001,-1.154917e-002
1.635429e+000,5.539737e-001,3.559766e+000,1.503136e+001,-9.999795e-003
1.637357e+000,5.524243e-001,3.558217e+000,1.503291e+001,-9.999795e-003
1.639286e+000,5.539737e-001,3.558217e+000,1.503601e+001,-1.154917e-002
1.641214e+000,5.539737e-001,3.558217e+000,1.503446e+001,-1.154917e-002
1.643143e+000,5.539737e-001,3.556668e+000,1.503136e+001,-1.154917e-002
1.645071e+000,5.539737e-001,3.556668e+000,1.503136e+001,-1.154917e-002
1.647000e+000,5.508749e-001,3.558217e+000,1.503136e+001,-1.154917e-002
1.648929e+000,5.524243e-001,3.558217e+000,1.503136e+001,-9.999795e-003
1.650857e+000,5.524243e-001,3.558217e+000,1.503136e+001,-9.999795e-003
1.652786e+000,5.524243e-001,3.559766e+000,1.503291e+001,-1.154917e-002
1.654714e+000,5.524243e-001,3.558217e+000,1.503446e+001,-9.999795e-003
1.656643e+000,5.508749e-001,3.555118e+000,1.503446e+001,-1.154917e-002
1.658571e+000,5.508749e-001,3.558217e+000,1.503446e+001,-1.154917e-002
1.660500e+000,5.508749e-001,3.558217e+000,1.503756e+001,-1.154917e-002
1.662429e+000,5.508749e-001,3.558217e+000,1.503601e+001,-9.999795e-003
1.664357e+000,5.508749e-001,3.558217e+000,1.503756e+001,-9.999795e-003
1.666286e+000,5.493255e-001,3.559766e+000,1.503756e+001,-1.154917e-002
1.668214e+000,5.508749e-001,3.558217e+000,1.503756e+001,-9.999795e-003
1.670143e+000,5.508749e-001,3.559766e+000,1.503601e+001,-9.999795e-003
1.672071e+000,5.508749e-001,3.556668e+000,1.503601e+001,-1.154917e-002
1.674000e+000,5.493255e-001,3.556668e+000,1.503446e+001,-1.154917e-002
1.675929e+000,5.508749e-001,3.558217e+000,1.503446e+001,-1.154917e-002
1.677857e+000,5.508749e-001,3.558217e+000,1.503136e+001,-1.154917e-002
1.679786e+000,5.524243e-001,3.558217e+000,1.503291e+001,-1.154917e-002
1.681714e+000,5.539737e-001,3.559766e+000,1.503136e+001,-9.999795e-003
1.683643e+000,5.524243e-001,3.556668e+000,1.503136e+001,-1.154917e-002
1.685571e+000,5.524243e-001,3.558217e+000,1.503291e+001,-1.154917e-002
1.687500e+000,5.539737e-001,3.558217e+000,1.503446e+001,-8.450417e-003
1.689429e+000,5.539737e-001,3.558217e+000,1.503291e+001,-8.450417e-003
1.691357e+000,5.508749e-001,3.558217e+000,1.503446e+001,-9.999795e-003
1.693286e+000,5.524243e-001,3.559766e+000,1.503601e+001,-1.154917e-002
1.695214e+000,5.524243e-001,3.561316e+000,1.503756e+001,-1.154917e-002
1.697143e+000,5.539737e-001,3.559766e+000,1.503756e+001,-1.154917e-002
1.699071e+000,5.539737e-001,3.561316e+000,1.503601e+001,-9.999795e-003
1.701000e+000,5.539737e-001,3.559766e+000,1.503601e+001,-9.999795e-003
1.702929e+000,5.524243e-001,3.562865e+000,1.503911e+001,-1.154917e-002
1.704857e+000,5.524243e-001,3.561316e+000,1.504066e+001,-9.999795e-003
1.706786e+000,5.539737e-001,3.561316e+000,1.503911e+001,-1.154917e-002
1.708714e+000,5.524243e-001,3.562865e+000,1.504220e+001,-9.999795e-003
1.710643e+000,5.524243e-001,3.562865e+000,1.504220e+001,-9.999795e-003
1.712571e+000,5.539737e-001,3.562865e+000,1.504220e+001,-1.154917e-002
1.714500e+000,5.601712e-001,3.562865e+000,1.504066e+001,-9.999795e-003
1.716429e+000,5.601712e-001,3.564415e+000,1.504066e+001,-1.154917e-002
1.718357e+000,5.632699e-001,3.565964e+000,1.504066e+001,-9.999795e-003
1.720286e+000,5.648193e-001,3.564415e+000,1.504066e+001,-1.154917e-002
1.722214e+000,5.648193e-001,3.567513e+000,1.504066e+001,-1.154917e-002
1.724143e+000,5.648193e-001,3.567513e+000,1.504220e+001,-1.154917e-002
1.726071e+000,5.648193e-001,3.569063e+000,1.504066e+001,-1.309855e-002
1.728000e+000,5.632699e-001,3.569063e+000,1.504220e+001,-1.154917e-002
1.729929e+000,5.617206e-001,3.570612e+000,1.504220e+001,-9.999795e-003
1.731857e+000,5.617206e-001,3.572161e+000,1.504375e+001,-1.154917e-002
1.733786e+000,5.617206e-001,3.575260e+000,1.503911e+001,-9.999795e-003
1.735714e+000,5.601712e-001,3.578359e+000,1.504066e+001,-9.999795e-003
1.737643e+000,5.601712e-001,3.578359e+000,1.504066e+001,-9.999795e-003
1.739571e+000,5.601712e-001,3.581458e+000,1.503756e+001,-1.154917e-002
1.741500e+000,5.586218e-001,3.578359e+000,1.503756e+001,-9.999795e-003
1.743429e+000,5.570724e-001,3.581458e+000,1.503756e+001,-1.154917e-002
1.745357e+000,5.539737e-001,3.581458e+000,1.503446e+001,-9.999795e-003
1.747286e+000,5.477762e-001,3.583007e+000,1.503446e+001,-1.154917e-002
1.749214e+000,5.446774e-001,3.584556e+000,1.503446e+001,-9.999795e-003
1.751143e+000,5.400293e-001,3.586106e+000,1.503446e+001,-1.154917e-002
1.753071e+000,5.322824e-001,3.584556e+000,1.503136e+001,-1.154917e-002
1.755000e+000,5.291836e-001,3.586106e+000,1.503446e+001,-9.999795e-003
1.756929e+000,5.276343e-001,3.586106e+000,1.503291e+001,-9.999795e-003
1.758857e+000,5.260849e-001,3.584556e+000,1.503136e+001,-1.154917e-002
1.760786e+000,5.276343e-001,3.590754e+000,1.503291e+001,-1.154917e-002
1.762714e+000,5.307330e-001,3.589205e+000,1.503291e+001,-9.999795e-003
1.764643e+000,5.291836e-001,3.589205e+000,1.503136e+001,-1.154917e-002
1.766571e+000,5.338318e-001,3.589205e+000,1.503136e+001,-1.154917e-002
1.768500e+000,5.384799e-001,3.590754e+000,1.503291e+001,-1.154917e-002
1.770429e+000,5.477762e-001,3.592303e+000,1.503291e+001,-1.154917e-002
1.772357e+000,5.570724e-001,3.593853e+000,1.503446e+001,-1.154917e-002
1.774286e+000,5.663687e-001,3.595402e+000,1.502981e+001,-1.154917e-002
1.776214e+000,5.694674e-001,3.596951e+000,1.502826e+001,-1.154917e-002
1.778143e+000,5.663687e-001,3.596951e+000,1.502981e+001,-1.309855e-002
1.780071e+000,5.648193e-001,3.598501e+000,1.502826e+001,-1.154917e-002
1.782000e+000,5.570724e-001,3.596951e+000,1.503136e+001,-9.999795e-003
1.783929e+000,5.508749e-001,3.600050e+000,1.502981e+001,-1.154917e-002
1.785857e+000,5.431280e-001,3.600050e+000,1.502981e+001,-1.154917e-002
1.787786e+000,5.353811e-001,3.600050e+000,1.503291e+001,-1.309855e-002
1.789714e+000,5.260849e-001,3.600050e+000,1.503136e+001,-1.154917e-002
1.791643e+000,5.136899e-001,3.598501e+000,1.503446e+001,-1.154917e-002
1.793571e+000,5.105911e-001,3.596951e+000,1.503136e+001,-1.309855e-002
1.795500e+000,5.105911e-001,3.598501e+000,1.503446e+001,-1.154917e-002
1.797429e+000,5.105911e-001,3.598501e+000,1.503446e+001,-1.154917e-002
1.799357e+000,5.136899e-001,3.600050e+000,1.503446e+001,-9.999795e-003
1.801286e+000,5.105911e-001,3.600050e+000,1.503601e+001,-9.999795e-003
1.803214e+000,5.136899e-001,3.601599e+000,1.503446e+001,-9.999795e-003
1.805143e+000,5.136899e-001,3.603149e+000,1.503291e+001,-1.154917e-002
1.807071e+000,5.105911e-001,3.603149e+000,1.503136e+001,-1.154917e-002
1.809000e+000,5.059429e-001,3.604698e+000,1.503136e+001,-1.154917e-002
1.810929e+000,5.043936e-001,3.606248e+000,1.503136e+001,-9.999795e-003
1.812857e+000,5.074924e-001,3.609346e+000,1.503136e+001,-1.154917e-002
1.814786e+000,5.121405e-001,3.609346e+000,1.503291e+001,-1.309855e-002
1.816714e+000,5.121405e-001,3.607797e+000,1.503446e+001,-1.154917e-002
1.818643e+000,5.121405e-001,3.612445e+000,1.503601e+001,-9.999795e-003
1.820571e+000,5.152392e-001,3.612445e+000,1.503291e+001,-1.154917e-002
1.822500e+000,5.214368e-001,3.613995e+000,1.503446e+001,-1.154917e-002
1.824429e+000,5.276343e-001,3.617093e+000,1.503446e+001,-9.999795e-003
1.826357e+000,5.322824e-001,3.617093e+000,1.503136e+001,-9.999795e-003
1.828286e+000,5.369305e-001,3.618643e+000,1.502981e+001,-1.154917e-002
1.830214e+000,5.415787e-001,3.617093e+000,1.502826e+001,-9.999795e-003
1.832143e+000,5.400293e-001,3.620192e+000,1.502826e+001,-1.154917e-002
1.834071e+000,5.384799e-001,3.620192e+000,1.502516e+001,-1.154917e-002
1.836000e+000,5.369305e-001,3.620192e+000,1.502671e+001,-9.999795e-003
1.837929e+000,5.415787e-001,3.618643e+000,1.502516e+001,-1.154917e-002
1.839857e+000,5.493255e-001,3.620192e+000,1.502516e+001,-1.154917e-002
1.841786e+000,5.570724e-001,3.621742e+000,1.502516e+001,-1.154917e-002
1.843714e+000,5.632699e-001,3.621742e+000,1.502826e+001,-9.999795e-003
1.845643e+000,5.694674e-001,3.626390e+000,1.502516e+001,-1.154917e-002
1.847571e+000,5.756649e-001,3.626390e+000,1.502671e+001,-1.154917e-002
1.849500e+000,5.818624e-001,3.627939e+000,1.502826e+001,-1.154917e-002
1.851429e+000,5.880600e-001,3.627939e+000,1.502826e+001,-9.999795e-003
1.853357e+000,5.911587e-001,3.627939e+000,1.502981e+001,-1.154917e-002
1.855286e+000,5.896094e-001,3.631038e+000,1.503136e+001,-1.154917e-002
1.857214e+000,5.880600e-001,3.631038e+000,1.503291e+001,-1.154917e-002
1.859143e+000,5.865106e-001,3.632587e+000,1.503136e+001,-9.999795e-003
1.861071e+000,5.834119e-001,3.632587e+000,1.503136e+001,-1.154917e-002
1.863000e+000,5.710168e-001,3.635686e+000,1.503136e+001,-1.154917e-002
1.864929e+000,5.617206e-001,3.637235e+000,1.502981e+001,-1.154917e-002
1.866857e+000,5.586218e-001,3.638785e+000,1.502981e+001,-1.154917e-002
1.868786e+000,5.632699e-001,3.638785e+000,1.502826e+001,-9.999795e-003
1.870714e+000,5.679181e-001,3.640334e+000,1.502981e+001,-1.154917e-002
1.872643e+000,5.756649e-001,3.643433e+000,1.502826e+001,-9.999795e-003
1.874571e+000,5.818624e-001,3.644982e+000,1.502826e+001,-1.154917e-002
1.876500e+000,5.865106e-001,3.641883e+000,1.502981e+001,-1.154917e-002
1.878429e+000,5.896094e-001,3.643433e+000,1.503136e+001,-9.999795e-003
1.880357e+000,5.927081e-001,3.644982e+000,1.503136e+001,-1.154917e-002
1.882286e+000,5.927081e-001,3.646532e+000,1.503136e+001,-1.154917e-002
1.884214e+000,5.911587e-001,3.644982e+000,1.503136e+001,-9.999795e-003
1.886143e+000,5.911587e-001,3.643433e+000,1.503291e+001,-9.999795e-003
1.888071e+000,5.911587e-001,3.646532e+000,1.503291e+001,-1.154917e-002
1.890000e+000,5.942575e-001,3.649630e+000,1.503136e+001,-9.999795e-003
1.891929e+000,5.989056e-001,3.651180e+000,1.503136e+001,-9.999795e-003
1.893857e+000,6.035538e-001,3.654278e+000,1.503136e+001,-1.309855e-002
1.895786e+000,6.051031e-001,3.655828e+000,1.502981e+001,-1.154917e-002
1.897714e+000,6.051031e-001,3.657377e+000,1.502981e+001,-9.999795e-003
1.899643e+000,6.051031e-001,3.660476e+000,1.502981e+001,-1.154917e-002
1.901571e+000,6.051031e-001,3.660476e+000,1.502826e+001,-1.154917e-002
1.903500e+000,6.020044e-001,3.662025e+000,1.502671e+001,-1.154917e-002
1.905429e+000,5.973563e-001,3.662025e+000,1.502516e+001,-1.154917e-002
1.907357e+000,5.958069e-001,3.663575e+000,1.502516e+001,-9.999795e-003
1.909286e+000,5.958069e-001,3.663575e+000,1.502361e+001,-8.450417e-003
1.911214e+000,5.927081e-001,3.666673e+000,1.502516e+001,-1.154917e-002
1.913143e+000,5.942575e-001,3.669772e+000,1.502206e+001,-1.154917e-002
1.915071e+000,5.942575e-001,3.672871e+000,1.502361e+001,-1.309855e-002
1.917000e+000,6.004550e-001,3.674420e+000,1.502361e+001,-1.154917e-002
1.918929e+000,6.113006e-001,3.675970e+000,1.502361e+001,-9.999795e-003
1.920857e+000,6.205969e-001,3.675970e+000,1.502516e+001,-1.154917e-002
1.922786e+000,6.205969e-001,3.675970e+000,1.502671e+001,-1.154917e-002
1.924714e+000,6.221463e-001,3.674420e+000,1.502826e+001,-9.999795e-003
1.926643e+000,6.236957e-001,3.675970e+000,1.502826e+001,-9.999795e-003
1.928571e+000,6.221463e-001,3.675970e+000,1.502981e+001,-1.309855e-002
1.930500e+000,6.221463e-001,3.674420e+000,1.502981e+001,-1.154917e-002
1.932429e+000,6.205969e-001,3.675970e+000,1.503136e+001,-1.309855e-002
1.934357e+000,6.221463e-001,3.675970e+000,1.503291e+001,-1.154917e-002
1.936286e+000,6.205969e-001,3.677519e+000,1.503446e+001,-9.999795e-003
1.938214e+000,6.174982e-001,3.679068e+000,1.503291e+001,-1.154917e-002
1.940143e+000,6.143994e-001,3.685266e+000,1.503446e+001,-9.999795e-003
1.942071e+000,6.190475e-001,3.689914e+000,1.503291e+001,-1.154917e-002
1.944000e+000,6.267944e-001,3.694562e+000,1.503291e+001,-9.999795e-003
1.945929e+000,6.329919e-001,3.697661e+000,1.503601e+001,-1.309855e-002
1.947857e+000,6.298932e-001,3.699210e+000,1.503601e+001,-1.154917e-002
1.949786e+000,6.252450e-001,3.702309e+000,1.503446e+001,-9.999795e-003
1.951714e+000,6.143994e-001,3.700760e+000,1.503446e+001,-9.999795e-003
1.953643e+000,6.082019e-001,3.702309e+000,1.503291e+001,-9.999795e-003
1.955571e+000,6.066525e-001,3.703858e+000,1.503291e+001,-1.154917e-002
1.957500e+000,6.066525e-001,3.705408e+000,1.503446e+001,-1.154917e-002
1.959429e+000,6.051031e-001,3.703858e+000,1.503601e+001,-1.154917e-002
1.961357e+000,6.051031e-001,3.703858e+000,1.503446e+001,-1.154917e-002
1.963286e+000,6.066525e-001,3.702309e+000,1.503291e+001,-1.154917e-002
1.965214e+000,6.066525e-001,3.702309e+000,1.503446e+001,-1.154917e-002
1.967143e+000,6.082019e-001,3.702309e+000,1.503291e+001,-1.154917e-002
1.969071e+000,6.113006e-001,3.700760e+000,1.503291e+001,-1.154917e-002
1.971000e+000,6.159488e-001,3.702309e+000,1.503446e+001,-1.154917e-002
1.972929e+000,6.174982e-001,3.703858e+000,1.503446e+001,-9.999795e-003
1.974857e+000,6.205969e-001,3.705408e+000,1.503446e+001,-9.999795e-003
1.976786e+000,6.267944e-001,3.705408e+000,1.503756e+001,-9.999795e-003
1.978714e+000,6.360907e-001,3.711605e+000,1.503601e+001,-9.999795e-003
1.980643e+000,6.407388e-001,3.714704e+000,1.503756e+001,-9.999795e-003
1.982571e+000,6.500351e-001,3.714704e+000,1.503601e+001,-1.154917e-002
1.984500e+000,6.546832e-001,3.719352e+000,1.503601e+001,-9.999795e-003
1.986429e+000,6.577820e-001,3.720902e+000,1.503446e+001,-9.999795e-003
1.988357e+000,6.624301e-001,3.722451e+000,1.503136e+001,-9.999795e-003
1.990286e+000,6.655289e-001,3.719352e+000,1.502981e+001,-1.154917e-002
1.992214e+000,6.686276e-001,3.720902e+000,1.502826e+001,-9.999795e-003
1.994143e+000,6.686276e-001,3.717803e+000,1.502981e+001,-1.154917e-002
1.996071e+000,6.686276e-001,3.720902e+000,1.502826e+001,-1.154917e-002
1.998000e+000,6.701770e-001,3.717803e+000,1.502826e+001,-1.309855e-002
1.999929e+000,6.701770e-001,3.719352e+000,1.502981e+001,-1.154917e-002
2.001857e+000,6.717264e-001,3.719352e+000,1.502826e+001,-1.154917e-002
2.003786e+000,6.732758e-001,3.719352e+000,1.502826e+001,-1.154917e-002
2.005714e+000,6.763745e-001,3.717803e+000,1.502826e+001,-9.999795e-003
2.007643e+000,6.748251e-001,3.717803e+000,1.502981e+001,-1.154917e-002
2.009571e+000,6.748251e-001,3.716254e+000,1.502981e+001,-1.309855e-002
2.011500e+000,6.748251e-001,3.714704e+000,1.503136e+001,-9.999795e-003
2.013429e+000,6.763745e-001,3.714704e+000,1.503291e+001,-9.999795e-003
2.015357e+000,6.763745e-001,3.713155e+000,1.503136e+001,-1.154917e-002
2.017286e+000,6.763745e-001,3.714704e+000,1.503446e+001,-1.154917e-002
2.019214e+000,6.763745e-001,3.714704e+000,1.503446e+001,-9.999795e-003
2.021143e+000,6.748251e-001,3.714704e+000,1.503446e+001,-1.154917e-002
2.023071e+000,6.748251e-001,3.713155e+000,1.503136e+001,-1.154917e-002
2.025000e+000,6.732758e-001,3.708507e+000,1.503136e+001,-1.154917e-002
2.026929e+000,6.732758e-001,3.703858e+000,1.503291e+001,-1.154917e-002
2.028857e+000,6.732758e-001,3.702309e+000,1.503291e+001,-9.999795e-003
2.030786e+000,6.748251e-001,3.702309e+000,1.503446e+001,-1.154917e-002
2.032714e+000,6.732758e-001,3.699210e+000,1.503136e+001,-1.154917e-002
2.034643e+000,6.732758e-001,3.697661e+000,1.503136e+001,-8.450417e-003
2.036571e+000,6.717264e-001,3.696112e+000,1.502826e+001,-1.154917e-002
2.038500e+000,6.717264e-001,3.694562e+000,1.502981e+001,-1.154917e-002
2.040429e+000,6.686276e-001,3.693013e+000,1.503291e+001,-1.154917e-002
2.042357e+000,6.686276e-001,3.693013e+000,1.503136e+001,-9.999795e-003
2.044286e+000,6.670783e-001,3.691463e+000,1.503291e+001,-1.154917e-002
2.046214e+000,6.670783e-001,3.693013e+000,1.503601e+001,-9.999795e-003
2.048143e+000,6.670783e-001,3.691463e+000,1.503601e+001,-1.154917e-002
2.050071e+000,6.655289e-001,3.694562e+000,1.503756e+001,-1.154917e-002
2.052000e+000,6.655289e-001,3.696112e+000,1.503446e+001,-1.154917e-002
2.053929e+000,6.624301e-001,3.700760e+000,1.503446e+001,-1.154917e-002
2.055857e+000,6.546832e-001,3.699210e+000,1.503446e+001,-9.999795e-003
2.057786e+000,6.484857e-001,3.702309e+000,1.503756e+001,-1.309855e-002
2.059714e+000,6.469364e-001,3.705408e+000,1.503601e+001,-1.154917e-002
2.061643e+000,6.422882e-001,3.710056e+000,1.503601e+001,-9.999795e-003
2.063571e+000,6.438376e-001,3.706957e+000,1.503446e+001,-9.999795e-003
2.065500e+000,6.438376e-001,3.710056e+000,1.503756e+001,-9.999795e-003
2.067429e+000,6.422882e-001,3.708507e+000,1.503911e+001,-9.999795e-003
2.069357e+000,6.438376e-001,3.710056e+000,1.504066e+001,-9.999795e-003
2.071286e+000,6.453869e-001,3.710056e+000,1.504066e+001,-1.154917e-002
2.073214e+000,6.438376e-001,3.708507e+000,1.504220e+001,-9.999795e-003
2.075143e+000,6.438376e-001,3.708507e+000,1.504375e+001,-1.154917e-002
2.077071e+000,6.453869e-001,3.710056e+000,1.504066e+001,-1.309855e-002
2.079000e+000,6.453869e-001,3.710056e+000,1.504066e+001,-9.999795e-003
2.080929e+000,6.453869e-001,3.711605e+000,1.504066e+001,-1.154917e-002
2.082857e+000,6.453869e-001,3.711605e+000,1.504066e+001,-1.154917e-002
2.084786e+000,6.453869e-001,3.711605e+000,1.504066e+001,-9.999795e-003
2.086714e+000,6.453869e-001,3.711605e+000,1.504066e+001,-1.154917e-002
2.088643e+000,6.453869e-001,3.714704e+000,1.504220e+001,-1.154917e-002
2.090571e+000,6.453869e-001,3.716254e+000,1.504066e+001,-1.154917e-002
2.092500e+000,6.484857e-001,3.714704e+000,1.504220e+001,-1.154917e-002
2.094429e+000,6.453869e-001,3.713155e+000,1.504220e+001,-1.309855e-002
2.096357e+000,6.484857e-001,3.714704e+000,1.504220e+001,-1.154917e-002
2.098286e+000,6.484857e-001,3.713155e+000,1.504220e+001,-1.154917e-002
2.100214e+000,6.484857e-001,3.714704e+000,1.504066e+001,-1.154917e-002
2.102143e+000,6.484857e-001,3.714704e+000,1.503911e+001,-1.154917e-002
2.104071e+000,6.484857e-001,3.714704e+000,1.503756e+001,-1.309855e-002
2.106000e+000,6.500351e-001,3.713155e+000,1.503911e+001,-1.154917e-002
2.107929e+000,6.469364e-001,3.713155e+000,1.503911e+001,-1.154917e-002
2.109857e+000,6.469364e-001,3.713155e+000,1.504066e+001,-9.999795e-003
2.111786e+000,6.469364e-001,3.713155e+000,1.504066e+001,-9.999795e-003
2.113714e+000,6.469364e-001,3.713155e+000,1.504066e+001,-1.154917e-002
2.115643e+000,6.453869e-001,3.714704e+000,1.504066e+001,-9.999795e-003
2.117571e+000,6.484857e-001,3.714704e+000,1.503911e+001,-1.154917e-002
2.119500e+000,6.469364e-001,3.714704e+000,1.503756e+001,-1.154917e-002
2.121429e+000,6.469364e-001,3.714704e+000,1.503446e+001,-1.309855e-002
2.123357e+000,6.546832e-001,3.716254e+000,1.503291e+001,-8.450417e-003
2.125286e+000,6.608807e-001,3.714704e+000,1.503291e+001,-9.999795e-003
2.127214e+000,6.670783e-001,3.717803e+000,1.503136e+001,-1.154917e-002
2.129143e+000,6.748251e-001,3.717803e+000,1.503446e+001,-9.999795e-003
2.131071e+000,6.794733e-001,3.717803e+000,1.503291e+001,-9.999795e-003
2.133000e+000,6.841214e-001,3.716254e+000,1.503601e+001,-1.154917e-002
2.134929e+000,6.887695e-001,3.717803e+000,1.503446e+001,-1.154917e-002
2.136857e+000,6.965164e-001,3.717803e+000,1.503136e+001,-1.154917e-002
2.138786e+000,7.027139e-001,3.719352e+000,1.503136e+001,-9.999795e-003
2.140714e+000,7.073621e-001,3.716254e+000,1.503136e+001,-1.154917e-002
2.142643e+000,7.104608e-001,3.719352e+000,1.502671e+001,-9.999795e-003
2.144571e+000,7.151089e-001,3.720902e+000,1.502671e+001,-1.154917e-002
2.146500e+000,7.166584e-001,3.720902e+000,1.502671e+001,-9.999795e-003
2.148429e+000,7.182077e-001,3.720902e+000,1.502826e+001,-9.999795e-003
2.150357e+000,7.182077e-001,3.717803e+000,1.502826e+001,-9.999795e-003
2.152286e+000,7.213064e-001,3.719352e+000,1.502981e+001,-1.309855e-002
2.154214e+000,7.197571e-001,3.719352e+000,1.502826e+001,-9.999795e-003
2.156143e+000,7.182077e-001,3.717803e+000,1.502826e+001,-9.999795e-003
2.158071e+000,7.213064e-001,3.720902e+000,1.502826e+001,-9.999795e-003
2.160000e+000,7.213064e-001,3.720902e+000,1.502516e+001,-1.154917e-002
2.161929e+000,7.213064e-001,3.720902e+000,1.502516e+001,-9.999795e-003
2.163857e+000,7.228559e-001,3.722451e+000,1.502516e+001,-9.999795e-003
2.165786e+000,7.228559e-001,3.724000e+000,1.502516e+001,-9.999795e-003
2.167714e+000,7.213064e-001,3.725550e+000,1.502516e+001,-1.154917e-002
2.169643e+000,7.244052e-001,3.725550e+000,1.502826e+001,-9.999795e-003
2.171571e+000,7.228559e-001,3.727099e+000,1.502981e+001,-1.154917e-002
2.173500e+000,7.228559e-001,3.731747e+000,1.502981e+001,-9.999795e-003
2.175429e+000,7.259546e-001,3.730198e+000,1.502981e+001,-1.154917e-002
2.177357e+000,7.228559e-001,3.734846e+000,1.503136e+001,-9.999795e-003
2.179286e+000,7.259546e-001,3.733297e+000,1.503136e+001,-1.154917e-002
2.181214e+000,7.244052e-001,3.733297e+000,1.503136e+001,-1.154917e-002
2.183143e+000,7.259546e-001,3.734846e+000,1.503136e+001,-9.999795e-003
2.185071e+000,7.275040e-001,3.737945e+000,1.502826e+001,-1.154917e-002
2.187000e+000,7.275040e-001,3.737945e+000,1.502981e+001,-1.154917e-002
2.188929e+000,7.259546e-001,3.737945e+000,1.502981e+001,-1.154917e-002
2.190857e+000,7.244052e-001,3.739494e+000,1.502826e+001,-1.154917e-002
2.192786e+000,7.244052e-001,3.739494e+000,1.502981e+001,-9.999795e-003
2.194714e+000,7.244052e-001,3.739494e+000,1.502826e+001,-8.450417e-003
2.196643e+000,7.244052e-001,3.739494e+000,1.502981e+001,-1.154917e-002
2.198571e+000,7.259546e-001,3.739494e+000,1.502826e+001,-1.154917e-002
2.200500e+000,7.244052e-001,3.739494e+000,1.502671e+001,-9.999795e-003
2.202429e+000,7.244052e-001,3.737945e+000,1.502826e+001,-1.154917e-002
2.204357e+000,7.275040e-001,3.739494e+000,1.502826e+001,-1.154917e-002
2.206286e+000,7.259546e-001,3.739494e+000,1.502981e+001,-9.999795e-003
2.208214e+000,7.275040e-001,3.742593e+000,1.502826e+001,-9.999795e-003
2.210143e+000,7.275040e-001,3.741044e+000,1.502981e+001,-9.999795e-003
2.212071e+000,7.290534e-001,3.742593e+000,1.502826e+001,-1.154917e-002
2.214000e+000,7.290534e-001,3.742593e+000,1.502671e+001,-1.154917e-002
2.215929e+000,7.290534e-001,3.745692e+000,1.502981e+001,-9.999795e-003
2.217857e+000,7.306027e-001,3.744142e+000,1.503136e+001,-9.999795e-003
2.219786e+000,7.290534e-001,3.745692e+000,1.503136e+001,-9.999795e-003
2.221714e+000,7.290534e-001,3.747241e+000,1.503136e+001,-9.999795e-003
2.223643e+000,7.290534e-001,3.748791e+000,1.503446e+001,-1.154917e-002
2.225571e+000,7.275040e-001,3.748791e+000,1.503601e+001,-1.154917e-002
2.227500e+000,7.275040e-001,3.747241e+000,1.503601e+001,-1.154917e-002
2.229429e+000,7.259546e-001,3.747241e+000,1.503446e+001,-1.154917e-002
2.231357e+000,7.275040e-001,3.747241e+000,1.503136e+001,-1.154917e-002
2.233286e+000,7.213064e-001,3.748791e+000,1.503291e+001,-9.999795e-003
2.235214e+000,7.166584e-001,3.747241e+000,1.503136e+001,-1.154917e-002
2.237143e+000,7.166584e-001,3.750340e+000,1.503446e+001,-9.999795e-003
2.239071e+000,7.166584e-001,3.751889e+000,1.503291e+001,-9.999795e-003
2.241000e+000,7.151089e-001,3.753438e+000,1.503601e+001,-1.154917e-002
2.242929e+000,7.166584e-001,3.756537e+000,1.503446e+001,-1.154917e-002
2.244857e+000,7.213064e-001,3.753438e+000,1.503601e+001,-1.154917e-002
2.246786e+000,7.259546e-001,3.754988e+000,1.503446e+001,-1.154917e-002
2.248714e+000,7.306027e-001,3.754988e+000,1.503756e+001,-1.309855e-002
2.250643e+000,7.306027e-001,3.754988e+000,1.503756e+001,-1.154917e-002
2.252571e+000,7.290534e-001,3.753438e+000,1.503601e+001,-9.999795e-003
2.254500e+000,7.275040e-001,3.753438e+000,1.503756e+001,-1.154917e-002
2.256429e+000,7.259546e-001,3.753438e+000,1.503756e+001,-1.309855e-002
2.258357e+000,7.244052e-001,3.751889e+000,1.503601e+001,-1.154917e-002
2.260286e+000,7.244052e-001,3.751889e+000,1.503756e+001,-9.999795e-003
2.262214e+000,7.228559e-001,3.753438e+000,1.503446e+001,-8.450417e-003
2.264143e+000,7.197571e-001,3.753438e+000,1.503136e+001,-9.999795e-003
2.266071e+000,7.197571e-001,3.753438e+000,1.502981e+001,-9.999795e-003
2.268000e+000,7.166584e-001,3.753438e+000,1.503136e+001,-1.154917e-002
2.269929e+000,7.151089e-001,3.754988e+000,1.503136e+001,-9.999795e-003
2.271857e+000,7.135596e-001,3.758087e+000,1.503136e+001,-9.999795e-003
2.273786e+000,7.151089e-001,3.758087e+000,1.503136e+001,-9.999795e-003
2.275714e+000,7.135596e-001,3.758087e+000,1.502826e+001,-1.154917e-002
2.277643e+000,7.135596e-001,3.758087e+000,1.502671e+001,-1.154917e-002
2.279571e+000,7.151089e-001,3.758087e+000,1.502516e+001,-1.154917e-002
2.281500e+000,7.104608e-001,3.759636e+000,1.502826e+001,-1.154917e-002
2.283429e+000,7.027139e-001,3.756537e+000,1.502981e+001,-9.999795e-003
2.285357e+000,6.949670e-001,3.758087e+000,1.503136e+001,-1.154917e-002
2.287286e+000,6.903189e-001,3.759636e+000,1.503291e+001,-1.154917e-002
2.289214e+000,6.887695e-001,3.756537e+000,1.503291e+001,-9.999795e-003
2.291143e+000,6.856708e-001,3.759636e+000,1.503446e+001,-9.999795e-003
2.293071e+000,6.841214e-001,3.759636e+000,1.503136e+001,-9.999795e-003
2.295000e+000,6.825720e-001,3.759636e+000,1.503446e+001,-9.999795e-003
2.296929e+000,6.810226e-001,3.761185e+000,1.503291e+001,-9.999795e-003
2.298857e+000,6.794733e-001,3.761185e+000,1.503291e+001,-1.154917e-002
2.300786e+000,6.825720e-001,3.762735e+000,1.503136e+001,-1.154917e-002
2.302714e+000,6.810226e-001,3.761185e+000,1.503446e+001,-9.999795e-003
2.304643e+000,6.825720e-001,3.761185e+000,1.503601e+001,-1.154917e-002
2.306571e+000,6.794733e-001,3.758087e+000,1.503446e+001,-1.154917e-002
2.308500e+000,6.748251e-001,3.756537e+000,1.503756e+001,-1.154917e-002
2.310429e+000,6.732758e-001,3.754988e+000,1.503756e+001,-1.154917e-002
2.312357e+000,6.748251e-001,3.756537e+000,1.503601e+001,-9.999795e-003
2.314286e+000,6.732758e-001,3.756537e+000,1.503446e+001,-1.154917e-002
2.316214e+000,6.717264e-001,3.754988e+000,1.503136e+001,-1.154917e-002
2.318143e+000,6.732758e-001,3.756537e+000,1.503136e+001,-9.999795e-003
2.320071e+000,6.732758e-001,3.756537e+000,1.503291e+001,-1.309855e-002
2.322000e+000,6.717264e-001,3.753438e+000,1.503291e+001,-1.154917e-002
2.323929e+000,6.732758e-001,3.754988e+000,1.503446e+001,-9.999795e-003
2.325857e+000,6.732758e-001,3.754988e+000,1.503136e+001,-9.999795e-003
2.327786e+000,6.732758e-001,3.754988e+000,1.503136e+001,-1.154917e-002
2.329714e+000,6.717264e-001,3.756537e+000,1.503136e+001,-1.309855e-002
2.331643e+000,6.732758e-001,3.756537e+000,1.503136e+001,-9.999795e-003
2.333571e+000,6.748251e-001,3.758087e+000,1.503136e+001,-1.154917e-002
2.335500e+000,6.748251e-001,3.758087e+000,1.503136e+001,-9.999795e-003
2.337429e+000,6.717264e-001,3.758087e+000,1.503446e+001,-1.154917e-002
2.339357e+000,6.717264e-001,3.756537e+000,1.503601e+001,-1.154917e-002
2.341286e+000,6.732758e-001,3.754988e+000,1.503291e+001,-1.154917e-002
2.343214e+000,6.732758e-001,3.756537e+000,1.503291e+001,-1.154917e-002
2.345143e+000,6.732758e-001,3.756537e+000,1.503446e+001,-9.999795e-003
2.347071e+000,6.717264e-001,3.756537e+000,1.503601e+001,-1.309855e-002
2.349000e+000,6.701770e-001,3.754988e+000,1.503446e+001,-1.154917e-002
2.350929e+000,6.701770e-001,3.754988e+000,1.503601e+001,-1.154917e-002
2.352857e+000,6.701770e-001,3.754988e+000,1.503446e+001,-1.154917e-002
2.354786e+000,6.701770e-001,3.753438e+000,1.503291e+001,-1.154917e-002
2.356714e+000,6.701770e-001,3.756537e+000,1.503136e+001,-1.154917e-002
2.358643e+000,6.701770e-001,3.754988e+000,1.503446e+001,-9.999795e-003
2.360571e+000,6.701770e-001,3.756537e+000,1.503136e+001,-1.154917e-002
2.362500e+000,6.701770e-001,3.754988e+000,1.503291e+001,-9.999795e-003
2.364429e+000,6.701770e-001,3.754988e+000,1.503446e+001,-1.154917e-002
2.366357e+000,6.701770e-001,3.756537e+000,1.503601e+001,-9.999795e-003
2.368286e+000,6.701770e-001,3.758087e+000,1.503756e+001,-1.154917e-002
2.370214e+000,6.717264e-001,3.756537e+000,1.503601e+001,-1.154917e-002
2.372143e+000,6.701770e-001,3.758087e+000,1.503601e+001,-1.154917e-002
2.374071e+000,6.701770e-001,3.758087e+000,1.503601e+001,-1.309855e-002
2.376000e+000,6.701770e-001,3.758087e+000,1.503601e+001,-1.154917e-002
2.377929e+000,6.686276e-001,3.756537e+000,1.503756e+001,-1.154917e-002
2.379857e+000,6.701770e-001,3.754988e+000,1.503756e+001,-1.154917e-002
2.381786e+000,6.686276e-001,3.754988e+000,1.503756e+001,-1.154917e-002
2.383714e+000,6.686276e-001,3.754988e+000,1.503911e+001,-9.999795e-003
2.385643e+000,6.670783e-001,3.756537e+000,1.503911e+001,-9.999795e-003
2.387571e+000,6.670783e-001,3.756537e+000,1.503756e+001,-9.999795e-003
2.389500e+000,6.670783e-001,3.756537e+000,1.503756e+001,-1.154917e-002
2.391429e+000,6.670783e-001,3.758087e+000,1.503911e+001,-1.154917e-002
2.393357e+000,6.670783e-001,3.756537e+000,1.503911e+001,-1.154917e-002
2.395286e+000,6.686276e-001,3.754988e+000,1.503756e+001,-9.999795e-003
2.397214e+000,6.686276e-001,3.758087e+000,1.503756e+001,-9.999795e-003
2.399143e+000,6.670783e-001,3.756537e+000,1.503601e+001,-1.154917e-002
2.401071e+000,6.686276e-001,3.754988e+000,1.503601e+001,-1.309855e-002
2.403000e+000,6.686276e-001,3.756537e+000,1.503756e+001,-9.999795e-003
2.404929e+000,6.686276e-001,3.754988e+000,1.503446e+001,-9.999795e-003
2.406857e+000,6.670783e-001,3.753438e+000,1.503601e+001,-1.154917e-002
2.408786e+000,6.639795e-001,3.751889e+000,1.503601e+001,-1.154917e-002
2.410714e+000,6.655289e-001,3.753438e+000,1.503601e+001,-9.999795e-003
2.412643e+000,6.670783e-001,3.751889e+000,1.503601e+001,-9.999795e-003
2.414571e+000,6.655289e-001,3.751889e+000,1.503446e+001,-1.154917e-002
2.416500e+000,6.655289e-001,3.751889e+000,1.503446e+001,-9.999795e-003
2.418429e+000,6.686276e-001,3.750340e+000,1.503601e+001,-9.999795e-003
2.420357e+000,6.639795e-001,3.750340e+000,1.503601e+001,-1.154917e-002
2.422286e+000,6.593314e-001,3.747241e+000,1.503756e+001,-1.154917e-002
2.424214e+000,6.515844e-001,3.745692e+000,1.503756e+001,-1.309855e-002
2.426143e+000,6.500351e-001,3.744142e+000,1.503756e+001,-9.999795e-003
2.428071e+000,6.515844e-001,3.744142e+000,1.503601e+001,-1.154917e-002
2.430000e+000,6.546832e-001,3.742593e+000,1.503446e+001,-9.999795e-003
2.431929e+000,6.531339e-001,3.742593e+000,1.503601e+001,-9.999795e-003
2.433857e+000,6.577820e-001,3.742593e+000,1.503136e+001,-9.999795e-003
2.435786e+000,6.593314e-001,3.742593e+000,1.503136e+001,-9.999795e-003
2.437714e+000,6.593314e-001,3.741044e+000,1.502981e+001,-9.999795e-003
2.439643e+000,6.593314e-001,3.744142e+000,1.502826e+001,-9.999795e-003
2.441571e+000,6.608807e-001,3.741044e+000,1.502671e+001,-1.154917e-002
2.443500e+000,6.608807e-001,3.742593e+000,1.502826e+001,-1.154917e-002
2.445429e+000,6.608807e-001,3.741044e+000,1.502516e+001,-9.999795e-003
2.447357e+000,6.670783e-001,3.741044e+000,1.502826e+001,-1.154917e-002
2.449286e+000,6.670783e-001,3.739494e+000,1.502826e+001,-1.154917e-002
2.451214e+000,6.701770e-001,3.741044e+000,1.502981e+001,-1.154917e-002
2.453143e+000,6.717264e-001,3.742593e+000,1.503136e+001,-9.999795e-003
2.455071e+000,6.701770e-001,3.742593e+000,1.503136e+001,-1.154917e-002
2.457000e+000,6.732758e-001,3.742593e+000,1.503291e+001,-9.999795e-003
2.458929e+000,6.732758e-001,3.744142e+000,1.503446e+001,-1.154917e-002
2.460857e+000,6.732758e-001,3.744142e+000,1.503601e+001,-9.999795e-003
2.462786e+000,6.717264e-001,3.744142e+000,1.503756e+001,-9.999795e-003
2.464714e+000,6.717264e-001,3.744142e+000,1.503911e+001,-9.999795e-003
2.466643e+000,6.701770e-001,3.744142e+000,1.504066e+001,-9.999795e-003
2.468571e+000,6.717264e-001,3.744142e+000,1.504066e+001,-1.154917e-002
2.470500e+000,6.701770e-001,3.744142e+000,1.504220e+001,-1.154917e-002
2.472429e+000,6.701770e-001,3.744142e+000,1.504375e+001,-1.154917e-002
2.474357e+000,6.701770e-001,3.742593e+000,1.504375e+001,-1.154917e-002
2.476286e+000,6.717264e-001,3.742593e+000,1.504220e+001,-1.154917e-002
2.478214e+000,6.717264e-001,3.742593e+000,1.504220e+001,-9.999795e-003
2.480143e+000,6.701770e-001,3.745692e+000,1.503911e+001,-1.309855e-002
2.482071e+000,6.717264e-001,3.742593e+000,1.504066e+001,-1.154917e-002
2.484000e+000,6.717264e-001,3.745692e+000,1.504066e+001,-9.999795e-003
2.485929e+000,6.701770e-001,3.744142e+000,1.504066e+001,-1.154917e-002
2.487857e+000,6.701770e-001,3.742593e+000,1.503911e+001,-9.999795e-003
2.489786e+000,6.701770e-001,3.741044e+000,1.503756e+001,-1.154917e-002
2.491714e+000,6.701770e-001,3.742593e+000,1.503601e+001,-1.154917e-002
2.493643e+000,6.701770e-001,3.742593e+000,1.503446e+001,-9.999795e-003
2.495571e+000,6.686276e-001,3.742593e+000,1.503446e+001,-1.154917e-002
2.497500e+000,6.701770e-001,3.739494e+000,1.503446e+001,-1.154917e-002
2.499429e+000,6.701770e-001,3.741044e+000,1.503446e+001,-1.154917e-002
2.501357e+000,6.701770e-001,3.742593e+000,1.503446e+001,-9.999795e-003
2.503286e+000,6.717264e-001,3.742593e+000,1.503291e+001,-1.154917e-002
2.505214e+000,6.701770e-001,3.739494e+000,1.503446e+001,-1.154917e-002
2.507143e+000,6.701770e-001,3.739494e+000,1.503136e+001,-9.999795e-003
2.509071e+000,6.701770e-001,3.737945e+000,1.503136e+001,-1.154917e-002
2.511000e+000,6.701770e-001,3.737945e+000,1.503136e+001,-1.154917e-002
2.512929e+000,6.717264e-001,3.736395e+000,1.503136e+001,-1.154917e-002
2.514857e+000,6.686276e-001,3.737945e+000,1.502826e+001,-1.154917e-002
2.516786e+000,6.717264e-001,3.739494e+000,1.503136e+001,-1.154917e-002
2.518714e+000,6.701770e-001,3.739494e+000,1.503136e+001,-9.999795e-003
2.520643e+000,6.701770e-001,3.739494e+000,1.503136e+001,-1.309855e-002
2.522571e+000,6.701770e-001,3.739494e+000,1.502981e+001,-1.309855e-002
2.524500e+000,6.670783e-001,3.737945e+000,1.503291e+001,-9.999795e-003
2.526429e+000,6.686276e-001,3.739494e+000,1.503291e+001,-1.154917e-002
2.528357e+000,6.686276e-001,3.739494e+000,1.503446e+001,-1.154917e-002
2.530286e+000,6.686276e-001,3.739494e+000,1.503756e+001,-9.999795e-003
2.532214e+000,6.655289e-001,3.739494e+000,1.503601e+001,-1.154917e-002
2.534143e+000,6.670783e-001,3.739494e+000,1.503756e+001,-1.154917e-002
2.536071e+000,6.655289e-001,3.739494e+000,1.503756e+001,-1.154917e-002
2.538000e+000,6.639795e-001,3.739494e+000,1.503911e+001,-9.999795e-003
2.539929e+000,6.608807e-001,3.739494e+000,1.504066e+001,-9.999795e-003
2.541857e+000,6.608807e-001,3.739494e+000,1.504220e+001,-9.999795e-003
2.543786e+000,6.593314e-001,3.739494e+000,1.504375e+001,-9.999795e-003
2.545714e+000,6.577820e-001,3.737945e+000,1.504375e+001,-1.154917e-002
2.547643e+000,6.577820e-001,3.737945e+000,1.504375e+001,-1.309855e-002
2.549571e+000,6.593314e-001,3.739494e+000,1.504375e+001,-1.154917e-002
2.551500e+000,6.593314e-001,3.739494e+000,1.504685e+001,-1.309855e-002
2.553429e+000,6.593314e-001,3.737945e+000,1.504685e+001,-9.999795e-003
2.555357e+000,6.577820e-001,3.737945e+000,1.504530e+001,-9.999795e-003
2.557286e+000,6.577820e-001,3.739494e+000,1.504220e+001,-9.999795e-003
2.559214e+000,6.577820e-001,3.737945e+000,1.503911e+001,-1.154917e-002
2.561143e+000,6.577820e-001,3.739494e+000,1.503601e+001,-1.154917e-002
2.563071e+000,6.593314e-001,3.739494e+000,1.503136e+001,-1.154917e-002
2.565000e+000,6.577820e-001,3.737945e+000,1.503446e+001,-9.999795e-003
2.566929e+000,6.577820e-001,3.737945e+000,1.503446e+001,-1.154917e-002
2.568857e+000,6.593314e-001,3.739494e+000,1.503136e+001,-1.309855e-002
2.570786e+000,6.593314e-001,3.739494e+000,1.503136e+001,-1.154917e-002
2.572714e+000,6.593314e-001,3.739494e+000,1.502981e+001,-9.999795e-003
2.574643e+000,6.608807e-001,3.739494e+000,1.502826e+001,-9.999795e-003
2.576571e+000,6.577820e-001,3.737945e+000,1.502826e+001,-1.309855e-002
2.578500e+000,6.593314e-001,3.742593e+000,1.502826e+001,-1.154917e-002
2.580429e+000,6.577820e-001,3.742593e+000,1.502981e+001,-9.999795e-003
2.582357e+000,6.593314e-001,3.742593e+000,1.503136e+001,-1.309855e-002
2.584286e+000,6.593314e-001,3.742593e+000,1.503446e+001,-1.154917e-002
2.586214e+000,6.593314e-001,3.741044e+000,1.503446e+001,-1.154917e-002
2.588143e+000,6.593314e-001,3.741044e+000,1.503446e+001,-9.999795e-003
2.590071e+000,6.593314e-001,3.742593e+000,1.503291e+001,-1.154917e-002
2.592000e+000,6.593314e-001,3.741044e+000,1.503756e+001,-1.154917e-002
2.593929e+000,6.593314e-001,3.742593e+000,1.503446e+001,-9.999795e-003
2.595857e+000,6.608807e-001,3.742593e+000,1.503601e+001,-1.154917e-002
2.597786e+000,6.624301e-001,3.742593e+000,1.503756e+001,-9.999795e-003
2.599714e+000,6.608807e-001,3.744142e+000,1.503601e+001,-9.999795e-003
2.601643e+000,6.593314e-001,3.744142e+000,1.503911e+001,-1.154917e-002
2.603571e+000,6.608807e-001,3.742593e+000,1.503756e+001,-1.154917e-002
2.605500e+000,6.608807e-001,3.742593e+000,1.503911e+001,-9.999795e-003
2.607429e+000,6.624301e-001,3.742593e+000,1.503911e+001,-9.999795e-003
2.609357e+000,6.624301e-001,3.742593e+000,1.503911e+001,-9.999795e-003
2.611286e+000,6.608807e-001,3.742593e+000,1.504066e+001,-1.154917e-002
2.613214e+000,6.608807e-001,3.742593e+000,1.504220e+001,-1.309855e-002
2.615143e+000,6.639795e-001,3.742593e+000,1.504220e+001,-1.309855e-002
2.617071e+000,6.624301e-001,3.742593e+000,1.504066e+001,-1.154917e-002
2.619000e+000,6.624301e-001,3.741044e+000,1.504066e+001,-9.999795e-003
2.620929e+000,6.608807e-001,3.742593e+000,1.504066e+001,-1.154917e-002
2.622857e+000,6.608807e-001,3.742593e+000,1.504066e+001,-9.999795e-003
2.624786e+000,6.608807e-001,3.739494e+000,1.504066e+001,-1.154917e-002
2.626714e+000,6.624301e-001,3.739494e+000,1.504375e+001,-9.999795e-003
2.628643e+000,6.639795e-001,3.739494e+000,1.504375e+001,-1.154917e-002
2.630571e+000,6.670783e-001,3.737945e+000,1.504220e+001,-1.154917e-002
2.632500e+000,6.717264e-001,3.734846e+000,1.504375e+001,-9.999795e-003
2.634429e+000,6.732758e-001,3.734846e+000,1.504375e+001,-1.154917e-002
2.636357e+000,6.763745e-001,3.733297e+000,1.504220e+001,-8.450417e-003
2.638286e+000,6.732758e-001,3.734846e+000,1.504066e+001,-9.999795e-003
2.640214e+000,6.732758e-001,3.734846e+000,1.504066e+001,-9.999795e-003
2.642143e+000,6.717264e-001,3.736395e+000,1.504220e+001,-9.999795e-003
2.644071e+000,6.701770e-001,3.736395e+000,1.504220e+001,-1.154917e-002
2.646000e+000,6.701770e-001,3.736395e+000,1.504375e+001,-1.154917e-002
2.647929e+000,6.686276e-001,3.737945e+000,1.504375e+001,-1.154917e-002
2.649857e+000,6.701770e-001,3.737945e+000,1.504375e+001,-1.154917e-002
2.651786e+000,6.717264e-001,3.739494e+000,1.504220e+001,-9.999795e-003
2.653714e+000,6.701770e-001,3.737945e+000,1.504220e+001,-1.154917e-002
2.655643e+000,6.701770e-001,3.739494e+000,1.504220e+001,-9.999795e-003
2.657571e+000,6.701770e-001,3.739494e+000,1.504066e+001,-1.154917e-002
2.659500e+000,6.686276e-001,3.736395e+000,1.504375e+001,-1.154917e-002
2.661429e+000,6.701770e-001,3.737945e+000,1.504375e+001,-9.999795e-003
2.663357e+000,6.686276e-001,3.739494e+000,1.504375e+001,-1.154917e-002
2.665286e+000,6.701770e-001,3.739494e+000,1.504375e+001,-9.999795e-003
2.667214e+000,6.686276e-001,3.737945e+000,1.504375e+001,-1.154917e-002
2.669143e+000,6.701770e-001,3.739494e+000,1.504375e+001,-9.999795e-003
2.671071e+000,6.701770e-001,3.737945e+000,1.504375e+001,-1.154917e-002
2.673000e+000,6.701770e-001,3.739494e+000,1.504685e+001,-1.154917e-002
2.674929e+000,6.686276e-001,3.737945e+000,1.504685e+001,-9.999795e-003
2.676857e+000,6.701770e-001,3.739494e+000,1.504995e+001,-9.999795e-003
2.678786e+000,6.717264e-001,3.739494e+000,1.504840e+001,-9.999795e-003
2.680714e+000,6.701770e-001,3.739494e+000,1.504840e+001,-1.154917e-002
2.682643e+000,6.701770e-001,3.739494e+000,1.504685e+001,-1.154917e-002
2.684571e+000,6.701770e-001,3.739494e+000,1.504375e+001,-1.154917e-002
2.686500e+000,6.717264e-001,3.739494e+000,1.504685e+001,-9.999795e-003
2.688429e+000,6.701770e-001,3.739494e+000,1.504685e+001,-1.154917e-002
2.690357e+000,6.717264e-001,3.739494e+000,1.504840e+001,-1.154917e-002
2.692286e+000,6.732758e-001,3.741044e+000,1.504840e+001,-1.154917e-002
2.694214e+000,6.717264e-001,3.741044e+000,1.504995e+001,-1.154917e-002
2.696143e+000,6.701770e-001,3.739494e+000,1.505150e+001,-9.999795e-003
2.698071e+000,6.732758e-001,3.739494e+000,1.504995e+001,-1.154917e-002
2.700000e+000,6.717264e-001,3.741044e+000,1.505305e+001,-9.999795e-003
2.701929e+000,6.717264e-001,3.741044e+000,1.505460e+001,-1.154917e-002
2.703857e+000,6.717264e-001,3.741044e+000,1.505460e+001,-1.154917e-002
2.705786e+000,6.732758e-001,3.739494e+000,1.505615e+001,-1.154917e-002
2.707714e+000,6.717264e-001,3.741044e+000,1.505305e+001,-1.154917e-002
2.709643e+000,6.748251e-001,3.739494e+000,1.505460e+001,-8.450417e-003
2.711571e+000,6.763745e-001,3.742593e+000,1.505305e+001,-1.309855e-002
2.713500e+000,6.779239e-001,3.741044e+000,1.505615e+001,-9.999795e-003
2.715429e+000,6.779239e-001,3.742593e+000,1.505460e+001,-9.999795e-003
2.717357e+000,6.825720e-001,3.741044e+000,1.505615e+001,-1.154917e-002
2.719286e+000,6.825720e-001,3.741044e+000,1.505305e+001,-1.154917e-002
2.721214e+000,6.825720e-001,3.741044e+000,1.505150e+001,-9.999795e-003
2.723143e+000,6.856708e-001,3.742593e+000,1.504995e+001,-9.999795e-003
2.725071e+000,6.887695e-001,3.744142e+000,1.504840e+001,-1.309855e-002
2.727000e+000,6.903189e-001,3.747241e+000,1.504840e+001,-1.154917e-002
2.728929e+000,6.872202e-001,3.745692e+000,1.504840e+001,-1.154917e-002
2.730857e+000,6.872202e-001,3.748791e+000,1.504685e+001,-9.999795e-003
2.732786e+000,6.887695e-001,3.747241e+000,1.504685e+001,-9.999795e-003
2.734714e+000,6.887695e-001,3.748791e+000,1.504530e+001,-9.999795e-003
2.736643e+000,6.903189e-001,3.748791e+000,1.504375e+001,-9.999795e-003
2.738571e+000,6.903189e-001,3.751889e+000,1.504530e+001,-1.309855e-002
2.740500e+000,6.887695e-001,3.753438e+000,1.504375e+001,-1.154917e-002
2.742429e+000,6.825720e-001,3.753438e+000,1.504530e+001,-9.999795e-003
2.744357e+000,6.841214e-001,3.751889e+000,1.504530e+001,-1.154917e-002
2.746286e+000,6.810226e-001,3.754988e+000,1.504685e+001,-9.999795e-003
2.748214e+000,6.810226e-001,3.758087e+000,1.504530e+001,-1.154917e-002
2.750143e+000,6.841214e-001,3.756537e+000,1.504685e+001,-9.999795e-003
2.752071e+000,6.918683e-001,3.758087e+000,1.504840e+001,-1.154917e-002
2.754000e+000,6.980658e-001,3.758087e+000,1.504840e+001,-9.999795e-003
2.755929e+000,7.011645e-001,3.761185e+000,1.504995e+001,-1.154917e-002
2.757857e+000,7.073621e-001,3.762735e+000,1.504840e+001,-1.154917e-002
2.759786e+000,7.104608e-001,3.762735e+000,1.504995e+001,-9.999795e-003
2.761714e+000,7.104608e-001,3.762735e+000,1.504840e+001,-1.154917e-002
2.763643e+000,7.089114e-001,3.764284e+000,1.504840e+001,-1.154917e-002
2.765571e+000,7.120102e-001,3.761185e+000,1.504685e+001,-1.309855e-002
2.767500e+000,7.120102e-001,3.761185e+000,1.504685e+001,-1.154917e-002
2.769429e+000,7.104608e-001,3.762735e+000,1.504685e+001,-8.450417e-003
2.771357e+000,7.120102e-001,3.761185e+000,1.504685e+001,-1.154917e-002
2.773286e+000,7.135596e-001,3.762735e+000,1.504530e+001,-1.154917e-002
2.775214e+000,7.151089e-001,3.761185e+000,1.504685e+001,-9.999795e-003
2.777143e+000,7.151089e-001,3.761185e+000,1.504685e+001,-1.154917e-002
2.779071e+000,7.135596e-001,3.761185e+000,1.504375e+001,-1.154917e-002
2.781000e+000,7.151089e-001,3.761185e+000,1.504375e+001,-1.154917e-002
2.782929e+000,7.135596e-001,3.761185e+000,1.504375e+001,-9.999795e-003
2.784857e+000,7.135596e-001,3.762735e+000,1.504066e+001,-9.999795e-003
2.786786e+000,7.151089e-001,3.761185e+000,1.504066e+001,-9.999795e-003
2.788714e+000,7.151089e-001,3.762735e+000,1.503911e+001,-1.154917e-002
2.790643e+000,7.151089e-001,3.761185e+000,1.504066e+001,-9.999795e-003
2.792571e+000,7.151089e-001,3.761185e+000,1.503756e+001,-1.154917e-002
2.794500e+000,7.151089e-001,3.762735e+000,1.504066e+001,-9.999795e-003
2.796429e+000,7.135596e-001,3.764284e+000,1.504220e+001,-1.154917e-002
2.798357e+000,7.151089e-001,3.764284e+000,1.503911e+001,-1.154917e-002
2.800286e+000,7.135596e-001,3.765834e+000,1.504220e+001,-9.999795e-003
2.802214e+000,7.135596e-001,3.764284e+000,1.503911e+001,-9.999795e-003
2.804143e+000,7.135596e-001,3.764284e+000,1.503756e+001,-9.999795e-003
2.806071e+000,7.135596e-001,3.764284e+000,1.503601e+001,-1.309855e-002
2.808000e+000,7.120102e-001,3.764284e+000,1.503601e+001,-1.154917e-002
2.809929e+000,7.104608e-001,3.764284e+000,1.503756e+001,-9.999795e-003
2.811857e+000,7.089114e-001,3.762735e+000,1.503756e+001,-1.154917e-002
2.813786e+000,7.058127e-001,3.762735e+000,1.503911e+001,-9.999795e-003
2.815714e+000,7.042633e-001,3.762735e+000,1.503911e+001,-1.154917e-002
2.817643e+000,7.058127e-001,3.762735e+000,1.504066e+001,-1.154917e-002
2.819571e+000,7.058127e-001,3.761185e+000,1.503756e+001,-1.154917e-002
2.821500e+000,7.027139e-001,3.761185e+000,1.503756e+001,-1.154917e-002
2.823429e+000,7.027139e-001,3.762735e+000,1.503911e+001,-1.154917e-002
2.825357e+000,7.027139e-001,3.764284e+000,1.504066e+001,-9.999795e-003
2.827286e+000,7.011645e-001,3.762735e+000,1.504375e+001,-9.999795e-003
2.829214e+000,6.996152e-001,3.764284e+000,1.504530e+001,-9.999795e-003
2.831143e+000,7.011645e-001,3.762735e+000,1.504375e+001,-9.999795e-003
2.833071e+000,6.980658e-001,3.762735e+000,1.504685e+001,-9.999795e-003
2.835000e+000,6.980658e-001,3.761185e+000,1.504685e+001,-1.154917e-002
2.836929e+000,6.903189e-001,3.759636e+000,1.504995e+001,-9.999795e-003
2.838857e+000,6.841214e-001,3.761185e+000,1.504995e+001,-1.309855e-002
2.840786e+000,6.779239e-001,3.758087e+000,1.504995e+001,-1.154917e-002
2.842714e+000,6.763745e-001,3.758087e+000,1.504995e+001,-1.309855e-002
2.844643e+000,6.748251e-001,3.758087e+000,1.504840e+001,-1.154917e-002
2.846571e+000,6.717264e-001,3.758087e+000,1.504840e+001,-1.154917e-002
2.848500e+000,6.686276e-001,3.754988e+000,1.504685e+001,-9.999795e-003
2.850429e+000,6.670783e-001,3.754988e+000,1.504840e+001,-1.154917e-002
2.852357e+000,6.670783e-001,3.754988e+000,1.504840e+001,-1.154917e-002
2.854286e+000,6.686276e-001,3.754988e+000,1.504995e+001,-1.154917e-002
2.856214e+000,6.639795e-001,3.756537e+000,1.505305e+001,-9.999795e-003
2.858143e+000,6.562326e-001,3.756537e+000,1.505150e+001,-1.154917e-002
2.860071e+000,6.515844e-001,3.756537e+000,1.504840e+001,-1.154917e-002
2.862000e+000,6.484857e-001,3.754988e+000,1.504995e+001,-1.154917e-002
2.863929e+000,6.422882e-001,3.754988e+000,1.505150e+001,-1.154917e-002
2.865857e+000,6.422882e-001,3.753438e+000,1.505305e+001,-1.154917e-002
2.867786e+000,6.422882e-001,3.754988e+000,1.505460e+001,-1.154917e-002
2.869714e+000,6.407388e-001,3.753438e+000,1.505460e+001,-1.154917e-002
2.871643e+000,6.422882e-001,3.753438e+000,1.505615e+001,-9.999795e-003
2.873571e+000,6.407388e-001,3.753438e+000,1.505615e+001,-1.154917e-002
2.875500e+000,6.407388e-001,3.751889e+000,1.505770e+001,-1.154917e-002
2.877429e+000,6.422882e-001,3.753438e+000,1.505770e+001,-9.999795e-003
2.879357e+000,6.422882e-001,3.754988e+000,1.505925e+001,-1.154917e-002
2.881286e+000,6.407388e-001,3.751889e+000,1.505615e+001,-9.999795e-003
2.883214e+000,6.422882e-001,3.748791e+000,1.505615e+001,-9.999795e-003
2.885143e+000,6.438376e-001,3.750340e+000,1.505615e+001,-1.154917e-002
2.887071e+000,6.422882e-001,3.747241e+000,1.505460e+001,-9.999795e-003
2.889000e+000,6.391894e-001,3.747241e+000,1.505305e+001,-1.309855e-002
2.890929e+000,6.360907e-001,3.745692e+000,1.505615e+001,-1.309855e-002
2.892857e+000,6.376401e-001,3.745692e+000,1.505460e+001,-9.999795e-003
2.894786e+000,6.360907e-001,3.747241e+000,1.505615e+001,-9.999795e-003
2.896714e+000,6.360907e-001,3.745692e+000,1.505925e+001,-9.999795e-003
2.898643e+000,6.360907e-001,3.745692e+000,1.505770e+001,-9.999795e-003
2.900571e+000,6.360907e-001,3.747241e+000,1.505615e+001,-1.309855e-002
2.902500e+000,6.345413e-001,3.747241e+000,1.505615e+001,-9.999795e-003
2.904429e+000,6.345413e-001,3.744142e+000,1.505615e+001,-1.309855e-002
2.906357e+000,6.345413e-001,3.742593e+000,1.505460e+001,-8.450417e-003
2.908286e+000,6.345413e-001,3.744142e+000,1.505460e+001,-1.154917e-002
2.910214e+000,6.329919e-001,3.744142e+000,1.505615e+001,-1.154917e-002
2.912143e+000,6.345413e-001,3.744142e+000,1.505460e+001,-1.154917e-002
2.914071e+000,6.345413e-001,3.745692e+000,1.505460e+001,-9.999795e-003
2.916000e+000,6.329919e-001,3.745692e+000,1.505615e+001,-9.999795e-003
2.917929e+000,6.345413e-001,3.745692e+000,1.505305e+001,-9.999795e-003
2.919857e+000,6.360907e-001,3.745692e+000,1.505615e+001,-1.154917e-002
2.921786e+000,6.360907e-001,3.747241e+000,1.505305e+001,-1.154917e-002
2.923714e+000,6.376401e-001,3.747241e+000,1.505460e+001,-1.154917e-002
2.925643e+000,6.407388e-001,3.745692e+000,1.505615e+001,-9.999795e-003
2.927571e+000,6.407388e-001,3.747241e+000,1.505460e+001,-1.309855e-002
2.929500e+000,6.407388e-001,3.747241e+000,1.505460e+001,-9.999795e-003
2.931429e+000,6.438376e-001,3.745692e+000,1.505615e+001,-9.999795e-003
2.933357e+000,6.422882e-001,3.748791e+000,1.505460e+001,-9.999795e-003
2.935286e+000,6.438376e-001,3.748791e+000,1.505615e+001,-9.999795e-003
2.937214e+000,6.438376e-001,3.748791e+000,1.505460e+001,-1.154917e-002
2.939143e+000,6.453869e-001,3.748791e+000,1.505305e+001,-9.999795e-003
2.941071e+000,6.515844e-001,3.750340e+000,1.505150e+001,-1.154917e-002
2.943000e+000,6.577820e-001,3.748791e+000,1.505305e+001,-9.999795e-003
2.944929e+000,6.608807e-001,3.750340e+000,1.505305e+001,-9.999795e-003
2.946857e+000,6.655289e-001,3.750340e+000,1.504995e+001,-9.999795e-003
2.948786e+000,6.670783e-001,3.751889e+000,1.504995e+001,-1.154917e-002
2.950714e+000,6.670783e-001,3.751889e+000,1.504995e+001,-9.999795e-003
2.952643e+000,6.670783e-001,3.750340e+000,1.504840e+001,-9.999795e-003
2.954571e+000,6.670783e-001,3.751889e+000,1.504685e+001,-1.154917e-002
2.956500e+000,6.670783e-001,3.750340e+000,1.504530e+001,-1.154917e-002
2.958429e+000,6.655289e-001,3.751889e+000,1.504840e+001,-1.154917e-002
2.960357e+000,6.670783e-001,3.751889e+000,1.504685e+001,-1.154917e-002
2.962286e+000,6.655289e-001,3.750340e+000,1.504685e+001,-1.154917e-002
2.964214e+000,6.639795e-001,3.751889e+000,1.504685e+001,-1.154917e-002
2.966143e+000,6.639795e-001,3.750340e+000,1.504685e+001,-9.999795e-003
2.968071e+000,6.639795e-001,3.753438e+000,1.504995e+001,-1.309855e-002
2.970000e+000,6.624301e-001,3.751889e+000,1.504995e+001,-1.309855e-002
2.971929e+000,6.639795e-001,3.753438e+000,1.505305e+001,-9.999795e-003
2.973857e+000,6.639795e-001,3.754988e+000,1.505305e+001,-1.154917e-002
2.975786e+000,6.655289e-001,3.754988e+000,1.505460e+001,-1.309855e-002
2.977714e+000,6.655289e-001,3.753438e+000,1.505460e+001,-1.154917e-002
2.979643e+000,6.655289e-001,3.751889e+000,1.505615e+001,-1.309855e-002
2.981571e+000,6.655289e-001,3.753438e+000,1.505305e+001,-1.154917e-002
2.983500e+000,6.670783e-001,3.753438e+000,1.505305e+001,-9.999795e-003
2.985429e+000,6.639795e-001,3.753438e+000,1.505460e+001,-8.450417e-003
2.987357e+000,6.624301e-001,3.751889e+000,1.504995e+001,-8.450417e-003
2.989286e+000,6.670783e-001,3.751889e+000,1.504995e+001,-9.999795e-003
2.991214e+000,6.670783e-001,3.751889e+000,1.504995e+001,-1.154917e-002
2.993143e+000,6.655289e-001,3.753438e+000,1.504685e+001,-1.154917e-002
2.995071e+000,6.639795e-001,3.754988e+000,1.504375e+001,-1.154917e-002
2.997000e+000,6.655289e-001,3.754988e+000,1.504220e+001,-9.999795e-003
2.998929e+000,6.639795e-001,3.756537e+000,1.503601e+001,-9.999795e-003
3.000857e+000,6.639795e-001,3.756537e+000,1.502981e+001,-1.154917e-002
3.002786e+000,6.639795e-001,3.756537e+000,1.502516e+001,-9.999795e-003
3.004714e+000,6.655289e-001,3.758087e+000,1.502206e+001,-1.309855e-002
3.006643e+000,6.655289e-001,3.758087e+000,1.502051e+001,-1.154917e-002
3.008571e+000,6.670783e-001,3.758087e+000,1.501741e+001,-1.154917e-002
3.010500e+000,6.686276e-001,3.759636e+000,1.502051e+001,-9.999795e-003
3.012429e+000,6.655289e-001,3.761185e+000,1.501896e+001,-1.154917e-002
3.014357e+000,6.670783e-001,3.761185e+000,1.501896e+001,-1.154917e-002
3.016286e+000,6.655289e-001,3.761185e+000,1.501896e+001,-9.999795e-003
3.018214e+000,6.670783e-001,3.759636e+000,1.501896e+001,-1.154917e-002
3.020143e+000,6.655289e-001,3.758087e+000,1.502051e+001,-9.999795e-003
3.022071e+000,6.686276e-001,3.761185e+000,1.501586e+001,-1.154917e-002
3.024000e+000,6.686276e-001,3.761185e+000,1.501896e+001,-9.999795e-003
3.025929e+000,6.686276e-001,3.759636e+000,1.502206e+001,-1.154917e-002
3.027857e+000,6.686276e-001,3.761185e+000,1.502051e+001,-1.154917e-002
3.029786e+000,6.686276e-001,3.762735e+000,1.502206e+001,-9.999795e-003
3.031714e+000,6.717264e-001,3.761185e+000,1.502206e+001,-1.154917e-002
3.033643e+000,6.701770e-001,3.762735e+000,1.502361e+001,-9.999795e-003
3.035571e+000,6.701770e-001,3.761185e+000,1.502516e+001,-1.154917e-002
3.037500e+000,6.717264e-001,3.761185e+000,1.502516e+001,-1.154917e-002
3.039429e+000,6.717264e-001,3.761185e+000,1.502516e+001,-9.999795e-003
3.041357e+000,6.701770e-001,3.759636e+000,1.502516e+001,-1.154917e-002
3.043286e+000,6.717264e-001,3.759636e+000,1.502671e+001,-1.154917e-002
3.045214e+000,6.717264e-001,3.759636e+000,1.502826e+001,-1.154917e-002
3.047143e+000,6.732758e-001,3.761185e+000,1.502516e+001,-1.154917e-002
3.049071e+000,6.686276e-001,3.759636e+000,1.502826e+001,-1.309855e-002
3.051000e+000,6.717264e-001,3.759636e+000,1.502981e+001,-9.999795e-003
3.052929e+000,6.701770e-001,3.759636e+000,1.502981e+001,-1.154917e-002
3.054857e+000,6.717264e-001,3.759636e+000,1.502826e+001,-1.154917e-002
3.056786e+000,6.701770e-001,3.761185e+000,1.502671e+001,-1.154917e-002
3.058714e+000,6.717264e-001,3.759636e+000,1.502516e+001,-1.154917e-002
3.060643e+000,6.717264e-001,3.761185e+000,1.502206e+001,-9.999795e-003
3.062571e+000,6.717264e-001,3.759636e+000,1.502206e+001,-1.154917e-002
3.064500e+000,6.732758e-001,3.761185e+000,1.502206e+001,-9.999795e-003
3.066429e+000,6.717264e-001,3.761185e+000,1.502051e+001,-1.154917e-002
3.068357e+000,6.748251e-001,3.761185e+000,1.501896e+001,-1.154917e-002
3.070286e+000,6.748251e-001,3.761185e+000,1.501896e+001,-9.999795e-003
3.072214e+000,6.748251e-001,3.762735e+000,1.501741e+001,-1.309855e-002
3.074143e+000,6.732758e-001,3.762735e+000,1.501896e+001,-1.154917e-002
3.076071e+000,6.717264e-001,3.762735e+000,1.501896e+001,-1.309855e-002
3.078000e+000,6.701770e-001,3.762735e+000,1.502051e+001,-1.154917e-002
3.079929e+000,6.717264e-001,3.762735e+000,1.502206e+001,-1.154917e-002
3.081857e+000,6.717264e-001,3.762735e+000,1.502206e+001,-1.154917e-002
3.083786e+000,6.717264e-001,3.762735e+000,1.502361e+001,-1.154917e-002
3.085714e+000,6.732758e-001,3.761185e+000,1.502361e+001,-9.999795e-003
3.087643e+000,6.732758e-001,3.761185e+000,1.502516e+001,-1.154917e-002
3.089571e+000,6.701770e-001,3.761185e+000,1.502361e+001,-1.154917e-002
3.091500e+000,6.717264e-001,3.762735e+000,1.502206e+001,-9.999795e-003
3.093429e+000,6.686276e-001,3.762735e+000,1.502361e+001,-9.999795e-003
3.095357e+000,6.701770e-001,3.762735e+000,1.502516e+001,-9.999795e-003
3.097286e+000,6.686276e-001,3.762735e+000,1.502671e+001,-9.999795e-003
3.099214e+000,6.701770e-001,3.764284e+000,1.502826e+001,-9.999795e-003
3.101143e+000,6.701770e-001,3.765834e+000,1.502826e+001,-1.154917e-002
3.103071e+000,6.701770e-001,3.762735e+000,1.502826e+001,-1.309855e-002
3.105000e+000,6.686276e-001,3.762735e+000,1.503136e+001,-9.999795e-003
3.106929e+000,6.686276e-001,3.764284e+000,1.503136e+001,-1.154917e-002
3.108857e+000,6.717264e-001,3.761185e+000,1.502981e+001,-1.154917e-002
3.110786e+000,6.717264e-001,3.761185e+000,1.502981e+001,-9.999795e-003
3.112714e+000,6.701770e-001,3.762735e+000,1.503136e+001,-1.154917e-002
3.114643e+000,6.701770e-001,3.759636e+000,1.502981e+001,-1.154917e-002
3.116571e+000,6.701770e-001,3.761185e+000,1.502981e+001,-1.154917e-002
3.118500e+000,6.701770e-001,3.759636e+000,1.502826e+001,-9.999795e-003
3.120429e+000,6.701770e-001,3.761185e+000,1.502826e+001,-1.154917e-002
3.122357e+000,6.686276e-001,3.759636e+000,1.502516e+001,-1.154917e-002
3.124286e+000,6.686276e-001,3.761185e+000,1.502361e+001,-9.999795e-003
3.126214e+000,6.701770e-001,3.759636e+000,1.502051e+001,-9.999795e-003
3.128143e+000,6.701770e-001,3.759636e+000,1.502051e+001,-1.154917e-002
3.130071e+000,6.686276e-001,3.759636e+000,1.501896e+001,-1.309855e-002
3.132000e+000,6.686276e-001,3.762735e+000,1.501896e+001,-9.999795e-003
3.133929e+000,6.670783e-001,3.759636e+000,1.501896e+001,-1.309855e-002
3.135857e+000,6.670783e-001,3.764284e+000,1.501896e+001,-1.154917e-002
3.137786e+000,6.686276e-001,3.764284e+000,1.501896e+001,-1.309855e-002
3.139714e+000,6.686276e-001,3.764284e+000,1.501741e+001,-1.154917e-002
3.141643e+000,6.670783e-001,3.761185e+000,1.501586e+001,-8.450417e-003
3.143571e+000,6.670783e-001,3.762735e+000,1.501586e+001,-1.464793e-002
3.145500e+000,6.670783e-001,3.761185e+000,1.501741e+001,-1.154917e-002
3.147429e+000,6.686276e-001,3.762735e+000,1.501586e+001,-1.154917e-002
3.149357e+000,6.670783e-001,3.762735e+000,1.501432e+001,-9.999795e-003
3.151286e+000,6.670783e-001,3.761185e+000,1.501896e+001,-1.154917e-002
3.153214e+000,6.686276e-001,3.764284e+000,1.501896e+001,-1.154917e-002
3.155143e+000,6.686276e-001,3.762735e+000,1.501896e+001,-1.154917e-002
3.157071e+000,6.686276e-001,3.762735e+000,1.501741e+001,-1.154917e-002
3.159000e+000,6.686276e-001,3.761185e+000,1.501741e+001,-1.154917e-002
3.160929e+000,6.655289e-001,3.761185e+000,1.501896e+001,-9.999795e-003
3.162857e+000,6.655289e-001,3.761185e+000,1.501586e+001,-1.154917e-002
3.164786e+000,6.655289e-001,3.761185e+000,1.501586e+001,-1.309855e-002
3.166714e+000,6.655289e-001,3.762735e+000,1.501586e+001,-9.999795e-003
3.168643e+000,6.655289e-001,3.764284e+000,1.501586e+001,-9.999795e-003
