Label: FSR adapter 16: FSR.A 16 Sampling frequency: 5.185185e+002 Number of points: 25900 X start: 0.000000e+000 Unit: % Domain Unit: s
Label: FSR adapter 16: FSR.B 16 Sampling frequency: 5.185185e+002 Number of points: 25900 X start: 0.000000e+000 Unit: % Domain Unit: s
Label: FSR adapter 16: FSR.C 16 Sampling frequency: 5.185185e+002 Number of points: 25900 X start: 0.000000e+000 Unit: % Domain Unit: s
Label: FSR adapter 16: FSR.D 16 Sampling frequency: 5.185185e+002 Number of points: 25900 X start: 0.000000e+000 Unit: % Domain Unit: s
Start Trigger Method: Trigno Wireless System (start trigger)
Stop Trigger Method: Trigno Wireless System (stop trigger)
Use Camera: NO
Video File Path: 
System Gain: 3.250000e-002
A/D card Gain: 1.000000e+000
Bit Resolution: -1.000000e+000
Bias: 0.000000e+000
High pass cutoff frequency: 0.000000e+000
Low pass cutoff frequency: 0.000000e+000
System Gain: 3.250000e-002
A/D card Gain: 1.000000e+000
Bit Resolution: -1.000000e+000
Bias: 0.000000e+000
High pass cutoff frequency: 0.000000e+000
Low pass cutoff frequency: 0.000000e+000
System Gain: 3.250000e-002
A/D card Gain: 1.000000e+000
Bit Resolution: -1.000000e+000
Bias: 0.000000e+000
High pass cutoff frequency: 0.000000e+000
Low pass cutoff frequency: 0.000000e+000
System Gain: 3.250000e-002
A/D card Gain: 1.000000e+000
Bit Resolution: -1.000000e+000
Bias: 0.000000e+000
High pass cutoff frequency: 0.000000e+000
Low pass cutoff frequency: 0.000000e+000
X [s],FSR adapter 16: FSR.A 16 [%],FSR adapter 16: FSR.B 16 [%],FSR adapter 16: FSR.C 16 [%],FSR adapter 16: FSR.D 16 [%]
0.000000e+000,2.921289e-001,4.057117e+000,2.102280e+001,-9.999795e-003
1.928571e-003,2.766351e-001,4.032327e+000,2.102280e+001,-9.999795e-003
3.857143e-003,2.518450e-001,4.013734e+000,2.102125e+001,-9.999795e-003
5.785714e-003,2.348019e-001,3.993592e+000,2.101815e+001,-9.999795e-003
7.714286e-003,2.224068e-001,3.968802e+000,2.101505e+001,-1.154917e-002
9.642857e-003,2.162093e-001,3.950210e+000,2.101351e+001,-1.309855e-002
1.157143e-002,2.115612e-001,3.925420e+000,2.100886e+001,-1.154917e-002
1.350000e-002,2.084625e-001,3.894432e+000,2.100886e+001,-1.154917e-002
1.542857e-002,1.991662e-001,3.864994e+000,2.100886e+001,-1.154917e-002
1.735714e-002,1.929687e-001,3.834006e+000,2.100731e+001,-1.154917e-002
1.928571e-002,1.852218e-001,3.807667e+000,2.100576e+001,-1.309855e-002
2.121429e-002,1.805737e-001,3.784426e+000,2.100421e+001,-1.154917e-002
2.314286e-002,1.728268e-001,3.767383e+000,2.099956e+001,-1.154917e-002
2.507143e-002,1.712774e-001,3.751889e+000,2.099646e+001,-1.154917e-002
2.700000e-002,1.666293e-001,3.741044e+000,2.099491e+001,-1.154917e-002
2.892857e-002,1.666293e-001,3.727099e+000,2.099801e+001,-1.154917e-002
3.085714e-002,1.635305e-001,3.711605e+000,2.099646e+001,-9.999795e-003
3.278571e-002,1.588824e-001,3.696112e+000,2.099336e+001,-1.154917e-002
3.471429e-002,1.511355e-001,3.682167e+000,2.099181e+001,-9.999795e-003
3.664286e-002,1.464874e-001,3.671322e+000,2.098872e+001,-1.154917e-002
3.857143e-002,1.418392e-001,3.662025e+000,2.099026e+001,-9.999795e-003
4.050000e-002,1.433886e-001,3.652729e+000,2.099181e+001,-8.450417e-003
4.242857e-002,1.449380e-001,3.643433e+000,2.099491e+001,-1.154917e-002
4.435714e-002,1.433886e-001,3.632587e+000,2.099801e+001,-9.999795e-003
4.628571e-002,1.340923e-001,3.613995e+000,2.099801e+001,-1.309855e-002
4.821429e-002,1.263454e-001,3.596951e+000,2.100266e+001,-1.154917e-002
5.014286e-002,1.216973e-001,3.581458e+000,2.100266e+001,-9.999795e-003
5.207143e-002,1.170492e-001,3.565964e+000,2.100266e+001,-1.154917e-002
5.400000e-002,1.124010e-001,3.548921e+000,2.099956e+001,-9.999795e-003
5.592857e-002,1.124010e-001,3.533427e+000,2.100266e+001,-9.999795e-003
5.785714e-002,1.093023e-001,3.517933e+000,2.100111e+001,-1.309855e-002
5.978571e-002,1.031048e-001,3.500890e+000,2.099646e+001,-9.999795e-003
6.171429e-002,9.380851e-002,3.486946e+000,2.099026e+001,-9.999795e-003
6.364286e-002,8.916038e-002,3.476100e+000,2.097942e+001,-1.309855e-002
6.557143e-002,8.451224e-002,3.463705e+000,2.096548e+001,-9.999795e-003
6.750000e-002,7.986411e-002,3.449760e+000,2.095463e+001,-1.154917e-002
6.942857e-002,7.366660e-002,3.432717e+000,2.093759e+001,-1.154917e-002
7.135714e-002,6.746909e-002,3.417224e+000,2.092829e+001,-9.999795e-003
7.328571e-002,6.127158e-002,3.401730e+000,2.091899e+001,-1.154917e-002
7.521429e-002,5.197531e-002,3.389335e+000,2.091434e+001,-9.999795e-003
7.714286e-002,5.042594e-002,3.378489e+000,2.090660e+001,-1.309855e-002
7.907143e-002,4.112967e-002,3.375390e+000,2.090660e+001,-9.999795e-003
8.100000e-002,3.028402e-002,3.370742e+000,2.090660e+001,-1.154917e-002
8.292857e-002,1.943838e-002,3.361446e+000,2.090505e+001,-1.154917e-002
8.485714e-002,1.014211e-002,3.352150e+000,2.090040e+001,-1.154917e-002
8.678571e-002,3.944604e-003,3.341304e+000,2.089885e+001,-9.999795e-003
8.871429e-002,2.395226e-003,3.328909e+000,2.089730e+001,-9.999795e-003
9.064286e-002,-7.035290e-004,3.314965e+000,2.089420e+001,-1.309855e-002
9.257143e-002,-7.035290e-004,3.299471e+000,2.089265e+001,-1.154917e-002
9.450000e-002,-2.252907e-003,3.287076e+000,2.088646e+001,-1.154917e-002
9.642857e-002,-2.252907e-003,3.271582e+000,2.087871e+001,-1.154917e-002
9.835714e-002,8.458487e-004,3.252990e+000,2.087096e+001,-9.999795e-003
1.002857e-001,7.043359e-003,3.239045e+000,2.086477e+001,-1.154917e-002
1.022143e-001,1.324087e-002,3.228199e+000,2.085702e+001,-1.154917e-002
1.041429e-001,1.324087e-002,3.222002e+000,2.085237e+001,-9.999795e-003
1.060714e-001,7.043359e-003,3.220453e+000,2.084927e+001,-1.154917e-002
1.080000e-001,2.395226e-003,3.214255e+000,2.084152e+001,-9.999795e-003
1.099286e-001,-7.035290e-004,3.204959e+000,2.083533e+001,-1.154917e-002
1.118571e-001,-5.351662e-003,3.192564e+000,2.082913e+001,-1.154917e-002
1.137857e-001,-5.351662e-003,3.183268e+000,2.082293e+001,-1.154917e-002
1.157143e-001,-5.351662e-003,3.169323e+000,2.081983e+001,-9.999795e-003
1.176429e-001,-5.351662e-003,3.150731e+000,2.081209e+001,-1.154917e-002
1.195714e-001,-3.802284e-003,3.135237e+000,2.080744e+001,-1.154917e-002
1.215000e-001,-6.901040e-003,3.122842e+000,2.079504e+001,-9.999795e-003
1.234286e-001,-8.450417e-003,3.115095e+000,2.078265e+001,-9.999795e-003
1.253571e-001,-1.309855e-002,3.110447e+000,2.077490e+001,-1.154917e-002
1.272857e-001,-1.309855e-002,3.107348e+000,2.076406e+001,-9.999795e-003
1.292143e-001,-1.309855e-002,3.099601e+000,2.075786e+001,-9.999795e-003
1.311429e-001,-1.309855e-002,3.093404e+000,2.074856e+001,-1.309855e-002
1.330714e-001,-1.464793e-002,3.084107e+000,2.073927e+001,-1.154917e-002
1.350000e-001,-1.619731e-002,3.076360e+000,2.072687e+001,-9.999795e-003
1.369286e-001,-1.619731e-002,3.065515e+000,2.071758e+001,-1.154917e-002
1.388571e-001,-1.619731e-002,3.057768e+000,2.071138e+001,-8.450417e-003
1.407857e-001,-1.464793e-002,3.053120e+000,2.070363e+001,-1.154917e-002
1.427143e-001,-1.774668e-002,3.045373e+000,2.069588e+001,-1.154917e-002
1.446429e-001,-1.619731e-002,3.040725e+000,2.068814e+001,-9.999795e-003
1.465714e-001,-1.464793e-002,3.032978e+000,2.067264e+001,-1.154917e-002
1.485000e-001,-1.619731e-002,3.020583e+000,2.065250e+001,-1.154917e-002
1.504286e-001,-1.464793e-002,3.014385e+000,2.063701e+001,-1.154917e-002
1.523571e-001,-1.464793e-002,3.006639e+000,2.061687e+001,-9.999795e-003
1.542857e-001,-1.464793e-002,3.000441e+000,2.059827e+001,-1.154917e-002
1.562143e-001,-1.464793e-002,2.995793e+000,2.058278e+001,-1.154917e-002
1.581429e-001,-1.464793e-002,2.994243e+000,2.057038e+001,-1.309855e-002
1.600714e-001,-1.464793e-002,2.989595e+000,2.056419e+001,-1.154917e-002
1.620000e-001,-1.619731e-002,2.983398e+000,2.055489e+001,-9.999795e-003
1.639286e-001,-1.464793e-002,2.975651e+000,2.054559e+001,-1.309855e-002
1.658571e-001,-1.464793e-002,2.969454e+000,2.053475e+001,-1.154917e-002
1.677857e-001,-1.464793e-002,2.967904e+000,2.052390e+001,-1.154917e-002
1.697143e-001,-1.464793e-002,2.966355e+000,2.051306e+001,-9.999795e-003
1.716429e-001,-1.619731e-002,2.969454e+000,2.050376e+001,-1.309855e-002
1.735714e-001,-1.619731e-002,2.967904e+000,2.049601e+001,-1.154917e-002
1.755000e-001,-1.619731e-002,2.964805e+000,2.048517e+001,-1.154917e-002
1.774286e-001,-1.619731e-002,2.960157e+000,2.047277e+001,-1.309855e-002
1.793571e-001,-1.464793e-002,2.957058e+000,2.046038e+001,-9.999795e-003
1.812857e-001,-1.619731e-002,2.953960e+000,2.044798e+001,-1.154917e-002
1.832143e-001,-1.464793e-002,2.953960e+000,2.044024e+001,-9.999795e-003
1.851429e-001,-1.309855e-002,2.953960e+000,2.043249e+001,-9.999795e-003
1.870714e-001,-1.464793e-002,2.955509e+000,2.042474e+001,-1.154917e-002
1.890000e-001,-1.309855e-002,2.958608e+000,2.041854e+001,-1.154917e-002
1.909286e-001,-1.309855e-002,2.960157e+000,2.041080e+001,-1.154917e-002
1.928571e-001,-1.309855e-002,2.961707e+000,2.040460e+001,-9.999795e-003
1.947857e-001,-9.999795e-003,2.966355e+000,2.040460e+001,-1.154917e-002
1.967143e-001,-5.351662e-003,2.971003e+000,2.040460e+001,-1.154917e-002
1.986429e-001,-5.351662e-003,2.974102e+000,2.039840e+001,-1.154917e-002
2.005714e-001,-2.252907e-003,2.978750e+000,2.040150e+001,-1.154917e-002
2.025000e-001,-7.035290e-004,2.986497e+000,2.040460e+001,-1.154917e-002
2.044286e-001,-7.035290e-004,2.991145e+000,2.040460e+001,-9.999795e-003
2.063571e-001,-3.802284e-003,2.994243e+000,2.040460e+001,-1.154917e-002
2.082857e-001,-6.901040e-003,2.998892e+000,2.040460e+001,-9.999795e-003
2.102143e-001,-5.351662e-003,3.001990e+000,2.040460e+001,-9.999795e-003
2.121429e-001,-8.450417e-003,3.005089e+000,2.040460e+001,-1.154917e-002
2.140714e-001,-6.901040e-003,3.008188e+000,2.040305e+001,-1.154917e-002
2.160000e-001,-6.901040e-003,3.017484e+000,2.040305e+001,-1.154917e-002
2.179286e-001,-5.351662e-003,3.026780e+000,2.040305e+001,-1.309855e-002
2.198571e-001,-3.802284e-003,3.036077e+000,2.040150e+001,-1.154917e-002
2.217857e-001,-2.252907e-003,3.045373e+000,2.040150e+001,-1.154917e-002
2.237143e-001,-2.252907e-003,3.054669e+000,2.040150e+001,-9.999795e-003
2.256429e-001,-7.035290e-004,3.057768e+000,2.040150e+001,-1.154917e-002
2.275714e-001,-2.252907e-003,3.059317e+000,2.040305e+001,-1.154917e-002
2.295000e-001,-3.802284e-003,3.063966e+000,2.040460e+001,-9.999795e-003
2.314286e-001,-2.252907e-003,3.068614e+000,2.040460e+001,-1.154917e-002
2.333571e-001,5.493982e-003,3.077910e+000,2.040615e+001,-9.999795e-003
2.352857e-001,1.169149e-002,3.090305e+000,2.040770e+001,-1.154917e-002
2.372143e-001,1.633963e-002,3.101151e+000,2.041235e+001,-9.999795e-003
2.391429e-001,2.098776e-002,3.110447e+000,2.041390e+001,-1.154917e-002
2.410714e-001,1.788900e-002,3.118194e+000,2.042009e+001,-1.154917e-002
2.430000e-001,1.324087e-002,3.127490e+000,2.042009e+001,-1.309855e-002
2.449286e-001,1.014211e-002,3.138336e+000,2.042319e+001,-1.154917e-002
2.468571e-001,1.014211e-002,3.150731e+000,2.042629e+001,-9.999795e-003
2.487857e-001,3.944604e-003,3.163126e+000,2.042629e+001,-1.154917e-002
2.507143e-001,-7.035290e-004,3.175521e+000,2.042939e+001,-9.999795e-003
2.526429e-001,-7.035290e-004,3.184817e+000,2.043249e+001,-1.309855e-002
2.545714e-001,2.395226e-003,3.197212e+000,2.043559e+001,-1.154917e-002
2.565000e-001,2.395226e-003,3.204959e+000,2.044179e+001,-1.309855e-002
2.584286e-001,5.493982e-003,3.211156e+000,2.044488e+001,-1.154917e-002
2.603571e-001,3.944604e-003,3.220453e+000,2.044798e+001,-9.999795e-003
2.622857e-001,-7.035290e-004,3.234397e+000,2.045418e+001,-1.154917e-002
2.642143e-001,-2.252907e-003,3.252990e+000,2.046038e+001,-1.154917e-002
2.661429e-001,-7.035290e-004,3.268483e+000,2.046348e+001,-1.309855e-002
2.680714e-001,2.395226e-003,3.280878e+000,2.046968e+001,-9.999795e-003
2.700000e-001,3.944604e-003,3.293273e+000,2.047432e+001,-9.999795e-003
2.719286e-001,7.043359e-003,3.304119e+000,2.048207e+001,-1.154917e-002
2.738571e-001,8.592737e-003,3.310317e+000,2.049137e+001,-1.154917e-002
2.757857e-001,1.324087e-002,3.318063e+000,2.049756e+001,-1.154917e-002
2.777143e-001,1.943838e-002,3.322711e+000,2.050841e+001,-9.999795e-003
2.796429e-001,2.253714e-002,3.327360e+000,2.051461e+001,-1.154917e-002
2.815714e-001,2.098776e-002,3.330458e+000,2.052080e+001,-1.154917e-002
2.835000e-001,1.788900e-002,3.333557e+000,2.052700e+001,-1.154917e-002
2.854286e-001,1.788900e-002,3.339755e+000,2.053165e+001,-1.154917e-002
2.873571e-001,2.253714e-002,3.352150e+000,2.053940e+001,-1.154917e-002
2.892857e-001,2.873465e-002,3.361446e+000,2.054404e+001,-1.154917e-002
2.912143e-001,3.493216e-002,3.372292e+000,2.055179e+001,-9.999795e-003
2.931429e-001,3.958029e-002,3.383137e+000,2.055644e+001,-1.154917e-002
2.950714e-001,4.112967e-002,3.390884e+000,2.055954e+001,-9.999795e-003
2.970000e-001,4.577780e-002,3.403279e+000,2.056419e+001,-9.999795e-003
2.989286e-001,5.197531e-002,3.409477e+000,2.056729e+001,-9.999795e-003
3.008571e-001,5.972220e-002,3.417224e+000,2.056883e+001,-9.999795e-003
3.027857e-001,6.746909e-002,3.424970e+000,2.056883e+001,-9.999795e-003
3.047143e-001,7.521597e-002,3.432717e+000,2.056729e+001,-1.154917e-002
3.066429e-001,7.521597e-002,3.438915e+000,2.056883e+001,-1.154917e-002
3.085714e-001,7.831473e-002,3.446662e+000,2.057193e+001,-9.999795e-003
3.105000e-001,7.986411e-002,3.455958e+000,2.057503e+001,-9.999795e-003
3.124286e-001,8.606162e-002,3.469903e+000,2.058123e+001,-1.154917e-002
3.143571e-001,8.916038e-002,3.491594e+000,2.058743e+001,-8.450417e-003
3.162857e-001,9.380851e-002,3.513285e+000,2.059053e+001,-1.154917e-002
3.182143e-001,9.535789e-002,3.531878e+000,2.059672e+001,-1.154917e-002
3.201429e-001,1.000060e-001,3.547371e+000,2.059982e+001,-1.154917e-002
3.220714e-001,1.031048e-001,3.558217e+000,2.060447e+001,-9.999795e-003
3.240000e-001,1.062035e-001,3.565964e+000,2.060757e+001,-1.154917e-002
3.259286e-001,1.108517e-001,3.573711e+000,2.060912e+001,-9.999795e-003
3.278571e-001,1.185986e-001,3.578359e+000,2.061377e+001,-9.999795e-003
3.297857e-001,1.247961e-001,3.581458e+000,2.061841e+001,-9.999795e-003
3.317143e-001,1.278948e-001,3.592303e+000,2.062151e+001,-1.154917e-002
3.336429e-001,1.247961e-001,3.600050e+000,2.062771e+001,-1.154917e-002
3.355714e-001,1.232467e-001,3.607797e+000,2.063391e+001,-1.154917e-002
3.375000e-001,1.263454e-001,3.618643e+000,2.064630e+001,-1.154917e-002
3.394286e-001,1.387405e-001,3.626390e+000,2.065715e+001,-1.154917e-002
3.413571e-001,1.542342e-001,3.634136e+000,2.066800e+001,-1.154917e-002
3.432857e-001,1.728268e-001,3.643433e+000,2.067574e+001,-1.154917e-002
3.452143e-001,1.883205e-001,3.646532e+000,2.068349e+001,-9.999795e-003
3.471429e-001,2.038143e-001,3.652729e+000,2.069123e+001,-1.154917e-002
3.490714e-001,2.193081e-001,3.658926e+000,2.070053e+001,-1.154917e-002
3.510000e-001,2.332525e-001,3.669772e+000,2.070828e+001,-1.154917e-002
3.529286e-001,2.518450e-001,3.679068e+000,2.071758e+001,-1.154917e-002
3.548571e-001,2.719869e-001,3.689914e+000,2.072687e+001,-9.999795e-003
3.567857e-001,2.905795e-001,3.696112e+000,2.073152e+001,-1.154917e-002
3.587143e-001,3.029745e-001,3.699210e+000,2.073927e+001,-1.154917e-002
3.606429e-001,3.076226e-001,3.705408e+000,2.074546e+001,-1.154917e-002
3.625714e-001,3.091720e-001,3.711605e+000,2.075631e+001,-1.154917e-002
3.645000e-001,3.184683e-001,3.716254e+000,2.076406e+001,-9.999795e-003
3.664286e-001,3.324127e-001,3.725550e+000,2.077335e+001,-1.154917e-002
3.683571e-001,3.417089e-001,3.736395e+000,2.078265e+001,-1.154917e-002
3.702857e-001,3.479064e-001,3.747241e+000,2.078885e+001,-1.154917e-002
3.722143e-001,3.494558e-001,3.758087e+000,2.079349e+001,-9.999795e-003
3.741429e-001,3.541040e-001,3.765834e+000,2.079194e+001,-1.154917e-002
3.760714e-001,3.587521e-001,3.772031e+000,2.079814e+001,-9.999795e-003
3.780000e-001,3.603015e-001,3.782877e+000,2.080124e+001,-1.154917e-002
3.799286e-001,3.618509e-001,3.795272e+000,2.081054e+001,-9.999795e-003
3.818571e-001,3.556533e-001,3.804568e+000,2.082603e+001,-9.999795e-003
3.837857e-001,3.525546e-001,3.812315e+000,2.084152e+001,-9.999795e-003
3.857143e-001,3.587521e-001,3.821611e+000,2.084927e+001,-1.154917e-002
3.876429e-001,3.726965e-001,3.827809e+000,2.085547e+001,-1.154917e-002
3.895714e-001,3.881903e-001,3.832457e+000,2.086012e+001,-9.999795e-003
3.915000e-001,3.943878e-001,3.834006e+000,2.086167e+001,-9.999795e-003
3.934286e-001,4.005853e-001,3.835556e+000,2.086322e+001,-9.999795e-003
3.953571e-001,4.129803e-001,3.840204e+000,2.086322e+001,-9.999795e-003
3.972857e-001,4.269247e-001,3.843302e+000,2.086012e+001,-1.309855e-002
3.992143e-001,4.393197e-001,3.849500e+000,2.085082e+001,-9.999795e-003
4.011429e-001,4.548135e-001,3.857247e+000,2.083843e+001,-1.309855e-002
4.030714e-001,4.858011e-001,3.868093e+000,2.082138e+001,-9.999795e-003
4.050000e-001,5.136899e-001,3.878938e+000,2.080744e+001,-1.154917e-002
4.069286e-001,5.431280e-001,3.889784e+000,2.079504e+001,-1.154917e-002
4.088571e-001,5.617206e-001,3.902179e+000,2.077645e+001,-1.154917e-002
4.107857e-001,5.787637e-001,3.909926e+000,2.075011e+001,-1.154917e-002
4.127143e-001,5.896094e-001,3.919222e+000,2.072377e+001,-1.154917e-002
4.146429e-001,5.958069e-001,3.923870e+000,2.069433e+001,-1.154917e-002
4.165714e-001,5.973563e-001,3.926969e+000,2.067419e+001,-1.154917e-002
4.185000e-001,5.989056e-001,3.930068e+000,2.065870e+001,-9.999795e-003
4.204286e-001,5.989056e-001,3.939364e+000,2.064785e+001,-1.154917e-002
4.223571e-001,5.973563e-001,3.950210e+000,2.063856e+001,-1.154917e-002
4.242857e-001,5.973563e-001,3.964154e+000,2.063391e+001,-1.154917e-002
4.262143e-001,6.035538e-001,3.975000e+000,2.063236e+001,-1.154917e-002
4.281429e-001,6.205969e-001,3.987395e+000,2.063081e+001,-1.309855e-002
4.300714e-001,6.438376e-001,4.002888e+000,2.063236e+001,-9.999795e-003
4.320000e-001,6.562326e-001,4.015284e+000,2.063081e+001,-9.999795e-003
4.339286e-001,6.763745e-001,4.024580e+000,2.062926e+001,-1.154917e-002
4.358571e-001,6.980658e-001,4.036974e+000,2.062926e+001,-9.999795e-003
4.377857e-001,7.135596e-001,4.044722e+000,2.063081e+001,-9.999795e-003
4.397143e-001,7.213064e-001,4.055567e+000,2.063236e+001,-9.999795e-003
4.416429e-001,7.275040e-001,4.061765e+000,2.063391e+001,-1.309855e-002
4.435714e-001,7.368003e-001,4.066413e+000,2.063856e+001,-9.999795e-003
4.455000e-001,7.460965e-001,4.077259e+000,2.064320e+001,-1.154917e-002
4.474286e-001,7.476459e-001,4.085005e+000,2.064630e+001,-1.154917e-002
4.493571e-001,7.414483e-001,4.094302e+000,2.065250e+001,-1.154917e-002
4.512857e-001,7.429978e-001,4.100499e+000,2.065560e+001,-1.154917e-002
4.532143e-001,7.538434e-001,4.111345e+000,2.066180e+001,-9.999795e-003
4.551429e-001,7.662384e-001,4.125289e+000,2.067729e+001,-1.154917e-002
4.570714e-001,7.755347e-001,4.137684e+000,2.070363e+001,-9.999795e-003
4.590000e-001,7.693372e-001,4.145431e+000,2.072687e+001,-1.154917e-002
4.609286e-001,7.522940e-001,4.153178e+000,2.074236e+001,-9.999795e-003
4.628571e-001,7.445471e-001,4.162474e+000,2.075786e+001,-9.999795e-003
4.647857e-001,7.414483e-001,4.177968e+000,2.076870e+001,-1.154917e-002
4.667143e-001,7.460965e-001,4.195011e+000,2.077645e+001,-1.154917e-002
4.686429e-001,7.460965e-001,4.210505e+000,2.078265e+001,-1.154917e-002
4.705714e-001,7.476459e-001,4.216702e+000,2.078730e+001,-1.154917e-002
4.725000e-001,7.460965e-001,4.221351e+000,2.078885e+001,-1.154917e-002
4.744286e-001,7.368003e-001,4.227548e+000,2.079349e+001,-9.999795e-003
4.763571e-001,7.166584e-001,4.232196e+000,2.079814e+001,-9.999795e-003
4.782857e-001,7.011645e-001,4.239943e+000,2.080279e+001,-9.999795e-003
4.802143e-001,6.918683e-001,4.247690e+000,2.080744e+001,-1.154917e-002
4.821429e-001,6.841214e-001,4.252338e+000,2.081364e+001,-1.154917e-002
4.840714e-001,6.810226e-001,4.258536e+000,2.081983e+001,-1.154917e-002
4.860000e-001,6.903189e-001,4.263184e+000,2.082603e+001,-9.999795e-003
4.879286e-001,7.073621e-001,4.269382e+000,2.082603e+001,-9.999795e-003
4.898571e-001,7.182077e-001,4.277128e+000,2.083068e+001,-1.154917e-002
4.917857e-001,7.213064e-001,4.287974e+000,2.083223e+001,-9.999795e-003
4.937143e-001,7.197571e-001,4.297270e+000,2.083843e+001,-1.309855e-002
4.956429e-001,7.151089e-001,4.305017e+000,2.083998e+001,-9.999795e-003
4.975714e-001,7.151089e-001,4.311214e+000,2.084462e+001,-9.999795e-003
4.995000e-001,7.151089e-001,4.323609e+000,2.084462e+001,-1.154917e-002
5.014286e-001,7.213064e-001,4.334455e+000,2.084772e+001,-9.999795e-003
5.033571e-001,7.244052e-001,4.346850e+000,2.085082e+001,-9.999795e-003
5.052857e-001,7.290534e-001,4.360795e+000,2.085547e+001,-1.154917e-002
5.072143e-001,7.429978e-001,4.371640e+000,2.086322e+001,-1.154917e-002
5.091429e-001,7.553928e-001,4.382486e+000,2.086477e+001,-1.309855e-002
5.110714e-001,7.646890e-001,4.396430e+000,2.086477e+001,-9.999795e-003
5.130000e-001,7.755347e-001,4.411924e+000,2.086786e+001,-1.154917e-002
5.149286e-001,7.724359e-001,4.427418e+000,2.087096e+001,-1.154917e-002
5.168571e-001,7.646890e-001,4.449109e+000,2.087871e+001,-9.999795e-003
5.187857e-001,7.507446e-001,4.464603e+000,2.088181e+001,-9.999795e-003
5.207143e-001,7.398990e-001,4.481646e+000,2.088491e+001,-1.154917e-002
5.226429e-001,7.337015e-001,4.500238e+000,2.088336e+001,-1.154917e-002
5.245714e-001,7.197571e-001,4.517282e+000,2.088181e+001,-1.154917e-002
5.265000e-001,6.903189e-001,4.532775e+000,2.088026e+001,-1.154917e-002
5.284286e-001,6.608807e-001,4.551368e+000,2.087406e+001,-1.154917e-002
5.303571e-001,6.345413e-001,4.571510e+000,2.086322e+001,-1.309855e-002
5.322857e-001,6.159488e-001,4.585454e+000,2.085857e+001,-1.154917e-002
5.342143e-001,6.082019e-001,4.594750e+000,2.085237e+001,-1.154917e-002
5.361429e-001,6.236957e-001,4.600948e+000,2.085082e+001,-1.154917e-002
5.380714e-001,6.438376e-001,4.608695e+000,2.084462e+001,-1.309855e-002
5.400000e-001,6.608807e-001,4.617991e+000,2.083843e+001,-9.999795e-003
5.419286e-001,6.949670e-001,4.624189e+000,2.082913e+001,-1.154917e-002
5.438571e-001,7.460965e-001,4.631936e+000,2.082138e+001,-9.999795e-003
5.457857e-001,8.080716e-001,4.644331e+000,2.081364e+001,-9.999795e-003
5.477143e-001,8.592011e-001,4.656726e+000,2.080124e+001,-1.154917e-002
5.496429e-001,9.025837e-001,4.669121e+000,2.078575e+001,-9.999795e-003
5.515714e-001,9.366699e-001,4.678417e+000,2.077490e+001,-1.154917e-002
5.535000e-001,9.583613e-001,4.687713e+000,2.076251e+001,-1.154917e-002
5.554286e-001,9.800525e-001,4.698559e+000,2.074546e+001,-8.450417e-003
5.573571e-001,9.955463e-001,4.712503e+000,2.072997e+001,-9.999795e-003
5.592857e-001,9.862500e-001,4.720250e+000,2.071602e+001,-9.999795e-003
5.612143e-001,9.707563e-001,4.727997e+000,2.069898e+001,-9.999795e-003
5.631429e-001,9.676575e-001,4.734195e+000,2.068194e+001,-1.154917e-002
5.650714e-001,9.692069e-001,4.741941e+000,2.066490e+001,-1.154917e-002
5.670000e-001,9.630094e-001,4.751238e+000,2.065560e+001,-9.999795e-003
5.689286e-001,9.583613e-001,4.754336e+000,2.064630e+001,-1.154917e-002
5.708571e-001,9.599106e-001,4.765182e+000,2.064011e+001,-1.154917e-002
5.727857e-001,9.583613e-001,4.776028e+000,2.063236e+001,-1.154917e-002
5.747143e-001,9.568118e-001,4.793071e+000,2.062461e+001,-9.999795e-003
5.766429e-001,9.630094e-001,4.813213e+000,2.061687e+001,-1.154917e-002
5.785714e-001,9.754044e-001,4.833355e+000,2.060137e+001,-1.154917e-002
5.805000e-001,1.000194e+000,4.851947e+000,2.058433e+001,-9.999795e-003
5.824286e-001,1.042028e+000,4.870540e+000,2.057193e+001,-1.154917e-002
5.843571e-001,1.060620e+000,4.884484e+000,2.056264e+001,-1.154917e-002
5.862857e-001,1.051324e+000,4.895330e+000,2.055334e+001,-1.154917e-002
5.882143e-001,1.048225e+000,4.901527e+000,2.054559e+001,-1.154917e-002
5.901429e-001,1.062170e+000,4.909274e+000,2.052545e+001,-9.999795e-003
5.920714e-001,1.074565e+000,4.917021e+000,2.050531e+001,-9.999795e-003
5.940000e-001,1.093157e+000,4.927867e+000,2.048982e+001,-1.154917e-002
5.959286e-001,1.131891e+000,4.938713e+000,2.047587e+001,-1.154917e-002
5.978571e-001,1.167527e+000,4.949558e+000,2.047277e+001,-1.154917e-002
5.997857e-001,1.187669e+000,4.958854e+000,2.046968e+001,-1.154917e-002
6.017143e-001,1.203163e+000,4.966601e+000,2.046968e+001,-9.999795e-003
6.036429e-001,1.204712e+000,4.969700e+000,2.046658e+001,-9.999795e-003
6.055714e-001,1.206262e+000,4.975897e+000,2.046968e+001,-1.154917e-002
6.075000e-001,1.207811e+000,4.977447e+000,2.047277e+001,-1.154917e-002
6.094286e-001,1.217107e+000,4.982095e+000,2.047587e+001,-9.999795e-003
6.113571e-001,1.243447e+000,4.983644e+000,2.047742e+001,-9.999795e-003
6.132857e-001,1.275984e+000,4.985194e+000,2.047897e+001,-1.154917e-002
6.152143e-001,1.293027e+000,4.982095e+000,2.047742e+001,-9.999795e-003
6.171429e-001,1.306971e+000,4.977447e+000,2.047587e+001,-1.154917e-002
6.190714e-001,1.308521e+000,4.974348e+000,2.047277e+001,-8.450417e-003
6.210000e-001,1.299224e+000,4.975897e+000,2.046812e+001,-9.999795e-003
6.229286e-001,1.291477e+000,4.974348e+000,2.046038e+001,-9.999795e-003
6.248571e-001,1.289928e+000,4.978996e+000,2.045418e+001,-1.154917e-002
6.267857e-001,1.282181e+000,4.978996e+000,2.044643e+001,-9.999795e-003
6.287143e-001,1.271335e+000,4.983644e+000,2.044179e+001,-1.154917e-002
6.306429e-001,1.265138e+000,4.983644e+000,2.043714e+001,-1.154917e-002
6.325714e-001,1.258940e+000,4.982095e+000,2.043714e+001,-1.154917e-002
6.345000e-001,1.280632e+000,4.980546e+000,2.043869e+001,-9.999795e-003
6.364286e-001,1.316267e+000,4.980546e+000,2.043869e+001,-9.999795e-003
6.383571e-001,1.339508e+000,4.978996e+000,2.044179e+001,-9.999795e-003
6.402857e-001,1.350354e+000,4.983644e+000,2.044798e+001,-1.154917e-002
6.422143e-001,1.347255e+000,4.985194e+000,2.045418e+001,-1.154917e-002
6.441429e-001,1.345706e+000,4.980546e+000,2.045883e+001,-1.154917e-002
6.460714e-001,1.353453e+000,4.974348e+000,2.046503e+001,-1.154917e-002
6.480000e-001,1.367397e+000,4.968151e+000,2.046503e+001,-9.999795e-003
6.499286e-001,1.384440e+000,4.958854e+000,2.046658e+001,-1.309855e-002
6.518571e-001,1.392187e+000,4.948009e+000,2.047742e+001,-1.309855e-002
6.537857e-001,1.393736e+000,4.938713e+000,2.048517e+001,-1.154917e-002
6.557143e-001,1.393736e+000,4.932515e+000,2.049291e+001,-1.154917e-002
6.576429e-001,1.398384e+000,4.927867e+000,2.050066e+001,-1.154917e-002
6.595714e-001,1.412329e+000,4.917021e+000,2.050686e+001,-1.154917e-002
6.615000e-001,1.430921e+000,4.907725e+000,2.050996e+001,-9.999795e-003
6.634286e-001,1.447965e+000,4.896879e+000,2.051461e+001,-9.999795e-003
6.653571e-001,1.458810e+000,4.882935e+000,2.051925e+001,-1.154917e-002
6.672857e-001,1.472755e+000,4.872089e+000,2.052235e+001,-1.154917e-002
6.692143e-001,1.511489e+000,4.864342e+000,2.052545e+001,-1.154917e-002
6.711429e-001,1.562618e+000,4.850398e+000,2.053010e+001,-1.154917e-002
6.730714e-001,1.615297e+000,4.833355e+000,2.053475e+001,-9.999795e-003
6.750000e-001,1.654032e+000,4.822509e+000,2.053320e+001,-9.999795e-003
6.769286e-001,1.691217e+000,4.811664e+000,2.052235e+001,-1.154917e-002
6.788571e-001,1.716007e+000,4.799268e+000,2.051616e+001,-9.999795e-003
6.807857e-001,1.731501e+000,4.776028e+000,2.050841e+001,-1.154917e-002
6.827143e-001,1.740797e+000,4.754336e+000,2.050531e+001,-9.999795e-003
6.846429e-001,1.745445e+000,4.729547e+000,2.050376e+001,-1.309855e-002
6.865714e-001,1.740797e+000,4.703207e+000,2.050996e+001,-1.309855e-002
6.885000e-001,1.725303e+000,4.673769e+000,2.051151e+001,-1.154917e-002
6.904286e-001,1.697414e+000,4.642781e+000,2.051770e+001,-9.999795e-003
6.923571e-001,1.664877e+000,4.607146e+000,2.052080e+001,-1.154917e-002
6.942857e-001,1.641637e+000,4.577707e+000,2.051925e+001,-1.154917e-002
6.962143e-001,1.643186e+000,4.549819e+000,2.052080e+001,-1.154917e-002
6.981429e-001,1.644736e+000,4.528127e+000,2.051925e+001,-1.309855e-002
7.000714e-001,1.643186e+000,4.509535e+000,2.052235e+001,-1.154917e-002
7.020000e-001,1.646285e+000,4.483195e+000,2.052235e+001,-1.154917e-002
7.039286e-001,1.652482e+000,4.453757e+000,2.052235e+001,-1.154917e-002
7.058571e-001,1.641637e+000,4.418121e+000,2.052390e+001,-1.154917e-002
7.077857e-001,1.609100e+000,4.363894e+000,2.052855e+001,-1.154917e-002
7.097143e-001,1.564168e+000,4.308116e+000,2.053320e+001,-1.154917e-002
7.116429e-001,1.531631e+000,4.243042e+000,2.053475e+001,-9.999795e-003
7.135714e-001,1.526983e+000,4.176419e+000,2.054404e+001,-1.154917e-002
7.155000e-001,1.548674e+000,4.109796e+000,2.054714e+001,-1.154917e-002
7.174286e-001,1.587409e+000,4.043172e+000,2.055334e+001,-9.999795e-003
7.193571e-001,1.623044e+000,3.985845e+000,2.055954e+001,-9.999795e-003
7.212857e-001,1.641637e+000,3.942463e+000,2.055954e+001,-1.154917e-002
7.232143e-001,1.652482e+000,3.919222e+000,2.056264e+001,-1.154917e-002
7.251429e-001,1.675723e+000,3.894432e+000,2.056109e+001,-1.309855e-002
7.270714e-001,1.692766e+000,3.846401e+000,2.056573e+001,-1.154917e-002
7.290000e-001,1.695865e+000,3.798371e+000,2.056883e+001,-1.154917e-002
7.309286e-001,1.686569e+000,3.748791e+000,2.057038e+001,-1.154917e-002
7.328571e-001,1.658680e+000,3.693013e+000,2.057503e+001,-1.154917e-002
7.347857e-001,1.627692e+000,3.646532e+000,2.057813e+001,-1.154917e-002
7.367143e-001,1.615297e+000,3.613995e+000,2.058278e+001,-9.999795e-003
7.386429e-001,1.612199e+000,3.593853e+000,2.058433e+001,-1.154917e-002
7.405714e-001,1.599804e+000,3.572161e+000,2.059672e+001,-9.999795e-003
7.425000e-001,1.584310e+000,3.536526e+000,2.060912e+001,-1.154917e-002
7.444286e-001,1.567267e+000,3.500890e+000,2.062306e+001,-1.154917e-002
7.463571e-001,1.548674e+000,3.480748e+000,2.063236e+001,-1.154917e-002
7.482857e-001,1.540927e+000,3.468353e+000,2.063701e+001,-9.999795e-003
7.502143e-001,1.536279e+000,3.455958e+000,2.064475e+001,-1.154917e-002
7.521429e-001,1.539378e+000,3.423421e+000,2.065870e+001,-1.309855e-002
7.540714e-001,1.550223e+000,3.369193e+000,2.068504e+001,-9.999795e-003
7.560000e-001,1.568816e+000,3.310317e+000,2.070518e+001,-1.154917e-002
7.579286e-001,1.571915e+000,3.251440e+000,2.072067e+001,-9.999795e-003
7.598571e-001,1.556421e+000,3.209607e+000,2.072997e+001,-9.999795e-003
7.617857e-001,1.539378e+000,3.192564e+000,2.073927e+001,-1.154917e-002
7.637143e-001,1.525433e+000,3.178619e+000,2.074856e+001,-1.309855e-002
7.656429e-001,1.522335e+000,3.155379e+000,2.075321e+001,-1.154917e-002
7.675714e-001,1.540927e+000,3.125941e+000,2.076096e+001,-9.999795e-003
7.695000e-001,1.562618e+000,3.091854e+000,2.076406e+001,-1.154917e-002
7.714286e-001,1.564168e+000,3.057768e+000,2.076406e+001,-1.154917e-002
7.733571e-001,1.561069e+000,3.031429e+000,2.076406e+001,-1.154917e-002
7.752857e-001,1.564168e+000,3.005089e+000,2.076406e+001,-1.154917e-002
7.772143e-001,1.570365e+000,2.971003e+000,2.076561e+001,-9.999795e-003
7.791429e-001,1.592057e+000,2.933818e+000,2.076561e+001,-9.999795e-003
7.810714e-001,1.582760e+000,2.890435e+000,2.076870e+001,-1.154917e-002
7.830000e-001,1.564168e+000,2.850151e+000,2.077645e+001,-1.154917e-002
7.849286e-001,1.545575e+000,2.820713e+000,2.078575e+001,-9.999795e-003
7.868571e-001,1.539378e+000,2.799022e+000,2.079349e+001,-1.154917e-002
7.887857e-001,1.548674e+000,2.788176e+000,2.079969e+001,-1.154917e-002
7.907143e-001,1.562618e+000,2.780429e+000,2.080279e+001,-9.999795e-003
7.926429e-001,1.567267e+000,2.768034e+000,2.080589e+001,-1.309855e-002
7.945714e-001,1.542477e+000,2.750991e+000,2.081364e+001,-9.999795e-003
7.965000e-001,1.514588e+000,2.735497e+000,2.081983e+001,-9.999795e-003
7.984286e-001,1.491347e+000,2.716905e+000,2.082293e+001,-8.450417e-003
8.003571e-001,1.474304e+000,2.692115e+000,2.082448e+001,-9.999795e-003
8.022857e-001,1.483600e+000,2.670424e+000,2.082758e+001,-1.154917e-002
8.042143e-001,1.516137e+000,2.653380e+000,2.083378e+001,-1.154917e-002
8.061429e-001,1.553322e+000,2.637887e+000,2.083533e+001,-1.154917e-002
8.080714e-001,1.585859e+000,2.628590e+000,2.083843e+001,-9.999795e-003
8.100000e-001,1.607551e+000,2.616195e+000,2.083688e+001,-9.999795e-003
8.119286e-001,1.606001e+000,2.605350e+000,2.082603e+001,-9.999795e-003
8.138571e-001,1.578112e+000,2.596053e+000,2.081828e+001,-1.309855e-002
8.157857e-001,1.550223e+000,2.579010e+000,2.081209e+001,-9.999795e-003
8.177143e-001,1.523884e+000,2.569714e+000,2.080279e+001,-1.154917e-002
8.196429e-001,1.505292e+000,2.565066e+000,2.078730e+001,-1.154917e-002
8.215714e-001,1.492897e+000,2.563517e+000,2.076715e+001,-1.154917e-002
8.235000e-001,1.488248e+000,2.557319e+000,2.074391e+001,-9.999795e-003
8.254286e-001,1.474304e+000,2.546473e+000,2.071912e+001,-1.154917e-002
8.273571e-001,1.460360e+000,2.535628e+000,2.070053e+001,-1.154917e-002
8.292857e-001,1.454162e+000,2.517035e+000,2.068039e+001,-1.154917e-002
8.312143e-001,1.474304e+000,2.503091e+000,2.066954e+001,-9.999795e-003
8.331429e-001,1.497545e+000,2.486048e+000,2.065870e+001,-1.154917e-002
8.350714e-001,1.520785e+000,2.470554e+000,2.064011e+001,-1.154917e-002
8.370000e-001,1.542477e+000,2.445764e+000,2.061222e+001,-1.154917e-002
8.389286e-001,1.553322e+000,2.419424e+000,2.058433e+001,-1.154917e-002
8.408571e-001,1.553322e+000,2.407029e+000,2.056573e+001,-1.154917e-002
8.427857e-001,1.553322e+000,2.407029e+000,2.055179e+001,-1.154917e-002
8.447143e-001,1.561069e+000,2.411678e+000,2.053785e+001,-1.154917e-002
8.466429e-001,1.596705e+000,2.425622e+000,2.052700e+001,-1.154917e-002
8.485714e-001,1.638538e+000,2.442665e+000,2.052855e+001,-1.154917e-002
8.505000e-001,1.663328e+000,2.458159e+000,2.052855e+001,-1.154917e-002
8.524286e-001,1.657131e+000,2.476751e+000,2.051925e+001,-1.154917e-002
8.543571e-001,1.633890e+000,2.489146e+000,2.051306e+001,-1.154917e-002
8.562857e-001,1.618396e+000,2.493794e+000,2.049756e+001,-1.309855e-002
8.582143e-001,1.609100e+000,2.490696e+000,2.048672e+001,-1.154917e-002
8.601429e-001,1.612199e+000,2.476751e+000,2.048052e+001,-1.154917e-002
8.620714e-001,1.615297e+000,2.465906e+000,2.048362e+001,-1.154917e-002
8.640000e-001,1.627692e+000,2.470554e+000,2.049446e+001,-1.154917e-002
8.659286e-001,1.646285e+000,2.475202e+000,2.050841e+001,-9.999795e-003
8.678571e-001,1.671075e+000,2.476751e+000,2.051616e+001,-9.999795e-003
8.697857e-001,1.692766e+000,2.481400e+000,2.052390e+001,-1.154917e-002
8.717143e-001,1.712908e+000,2.486048e+000,2.052855e+001,-9.999795e-003
8.736429e-001,1.720655e+000,2.481400e+000,2.053475e+001,-1.154917e-002
8.755714e-001,1.726853e+000,2.473653e+000,2.054404e+001,-1.154917e-002
8.775000e-001,1.725303e+000,2.461258e+000,2.055334e+001,-9.999795e-003
8.794286e-001,1.705161e+000,2.453511e+000,2.056264e+001,-1.154917e-002
8.813571e-001,1.685019e+000,2.448863e+000,2.057503e+001,-1.154917e-002
8.832857e-001,1.680371e+000,2.450412e+000,2.059362e+001,-9.999795e-003
8.852143e-001,1.685019e+000,2.459708e+000,2.061532e+001,-1.154917e-002
8.871429e-001,1.702062e+000,2.469004e+000,2.063391e+001,-1.309855e-002
8.890714e-001,1.736149e+000,2.478301e+000,2.064940e+001,-1.154917e-002
8.910000e-001,1.771785e+000,2.484498e+000,2.066335e+001,-1.154917e-002
8.929286e-001,1.808970e+000,2.486048e+000,2.066800e+001,-9.999795e-003
8.948571e-001,1.843056e+000,2.492245e+000,2.066800e+001,-1.154917e-002
8.967857e-001,1.863198e+000,2.498443e+000,2.066954e+001,-9.999795e-003
8.987143e-001,1.872494e+000,2.507739e+000,2.067419e+001,-9.999795e-003
9.006429e-001,1.861648e+000,2.513937e+000,2.068039e+001,-1.154917e-002
9.025714e-001,1.849253e+000,2.523233e+000,2.068659e+001,-9.999795e-003
9.045000e-001,1.843056e+000,2.530980e+000,2.068814e+001,-1.154917e-002
9.064286e-001,1.850803e+000,2.538727e+000,2.069588e+001,-9.999795e-003
9.083571e-001,1.870945e+000,2.548023e+000,2.070828e+001,-1.154917e-002
9.102857e-001,1.881790e+000,2.558868e+000,2.071758e+001,-9.999795e-003
9.122143e-001,1.886438e+000,2.568165e+000,2.072842e+001,-1.154917e-002
9.141429e-001,1.894185e+000,2.579010e+000,2.072997e+001,-1.154917e-002
9.160714e-001,1.900383e+000,2.588307e+000,2.073307e+001,-1.154917e-002
9.180000e-001,1.903482e+000,2.602251e+000,2.073927e+001,-8.450417e-003
9.199286e-001,1.917426e+000,2.617745e+000,2.073927e+001,-9.999795e-003
9.218571e-001,1.931370e+000,2.634788e+000,2.074082e+001,-9.999795e-003
9.237857e-001,1.940667e+000,2.651831e+000,2.074856e+001,-1.154917e-002
9.257143e-001,1.951512e+000,2.664226e+000,2.075631e+001,-1.154917e-002
9.276429e-001,1.960809e+000,2.676621e+000,2.075786e+001,-1.154917e-002
9.295714e-001,1.968555e+000,2.689016e+000,2.075786e+001,-9.999795e-003
9.315000e-001,1.973204e+000,2.702960e+000,2.075786e+001,-1.154917e-002
9.334286e-001,1.982500e+000,2.715356e+000,2.076251e+001,-1.154917e-002
9.353571e-001,2.001092e+000,2.727751e+000,2.076251e+001,-1.154917e-002
9.372857e-001,2.016586e+000,2.738596e+000,2.076406e+001,-9.999795e-003
9.392143e-001,2.028981e+000,2.750991e+000,2.076715e+001,-9.999795e-003
9.411429e-001,2.036728e+000,2.768034e+000,2.076406e+001,-1.154917e-002
9.430714e-001,2.044475e+000,2.788176e+000,2.076406e+001,-9.999795e-003
9.450000e-001,2.050673e+000,2.808318e+000,2.076406e+001,-9.999795e-003
9.469286e-001,2.052222e+000,2.828460e+000,2.076251e+001,-1.154917e-002
9.488571e-001,2.055321e+000,2.843954e+000,2.075476e+001,-1.154917e-002
9.507857e-001,2.053771e+000,2.860997e+000,2.074856e+001,-9.999795e-003
9.527143e-001,2.053771e+000,2.878040e+000,2.073927e+001,-9.999795e-003
9.546429e-001,2.049123e+000,2.896633e+000,2.072997e+001,-1.154917e-002
9.565714e-001,2.046024e+000,2.916775e+000,2.071758e+001,-9.999795e-003
9.585000e-001,2.044475e+000,2.938466e+000,2.070518e+001,-9.999795e-003
9.604286e-001,2.047574e+000,2.955509e+000,2.069588e+001,-1.154917e-002
9.623571e-001,2.056870e+000,2.969454e+000,2.068659e+001,-1.154917e-002
9.642857e-001,2.066166e+000,2.981848e+000,2.068349e+001,-1.154917e-002
9.662143e-001,2.069265e+000,2.995793e+000,2.068659e+001,-9.999795e-003
9.681429e-001,2.070814e+000,3.011287e+000,2.069433e+001,-1.154917e-002
9.700714e-001,2.069265e+000,3.028330e+000,2.070518e+001,-1.154917e-002
9.720000e-001,2.067716e+000,3.048472e+000,2.071138e+001,-8.450417e-003
9.739286e-001,2.064617e+000,3.076360e+000,2.071912e+001,-1.154917e-002
9.758571e-001,2.066166e+000,3.107348e+000,2.072687e+001,-9.999795e-003
9.777857e-001,2.069265e+000,3.144533e+000,2.073307e+001,-1.154917e-002
9.797143e-001,2.078561e+000,3.181718e+000,2.073772e+001,-9.999795e-003
9.816429e-001,2.084759e+000,3.217354e+000,2.073927e+001,-1.154917e-002
9.835714e-001,2.094055e+000,3.246792e+000,2.074546e+001,-1.154917e-002
9.855000e-001,2.100253e+000,3.274681e+000,2.075321e+001,-9.999795e-003
9.874286e-001,2.109549e+000,3.297921e+000,2.076096e+001,-9.999795e-003
9.893571e-001,2.118845e+000,3.316514e+000,2.076096e+001,-9.999795e-003
9.912857e-001,2.126592e+000,3.332008e+000,2.076251e+001,-1.154917e-002
9.932143e-001,2.131240e+000,3.352150e+000,2.075786e+001,-9.999795e-003
9.951429e-001,2.132790e+000,3.373841e+000,2.076096e+001,-1.309855e-002
9.970714e-001,2.125043e+000,3.404829e+000,2.076561e+001,-1.154917e-002
9.990000e-001,2.118845e+000,3.440464e+000,2.077025e+001,-8.450417e-003
1.000929e+000,2.114197e+000,3.485396e+000,2.078110e+001,-1.154917e-002
1.002857e+000,2.111098e+000,3.530328e+000,2.078885e+001,-9.999795e-003
1.004786e+000,2.115746e+000,3.570612e+000,2.079969e+001,-1.154917e-002
1.006714e+000,2.123493e+000,3.604698e+000,2.081209e+001,-1.154917e-002
1.008643e+000,2.126592e+000,3.632587e+000,2.082448e+001,-1.154917e-002
1.010571e+000,2.129691e+000,3.652729e+000,2.083688e+001,-8.450417e-003
1.012500e+000,2.134339e+000,3.671322e+000,2.084462e+001,-1.154917e-002
1.014429e+000,2.138987e+000,3.693013e+000,2.085237e+001,-1.154917e-002
1.016357e+000,2.129691e+000,3.716254e+000,2.085857e+001,-9.999795e-003
1.018286e+000,2.123493e+000,3.739494e+000,2.086477e+001,-1.154917e-002
1.020214e+000,2.121944e+000,3.767383e+000,2.087251e+001,-1.154917e-002
1.022143e+000,2.117296e+000,3.792173e+000,2.087406e+001,-9.999795e-003
1.024071e+000,2.115746e+000,3.813864e+000,2.088491e+001,-1.154917e-002
1.026000e+000,2.121944e+000,3.838654e+000,2.089730e+001,-9.999795e-003
1.027929e+000,2.129691e+000,3.868093e+000,2.090660e+001,-1.154917e-002
1.029857e+000,2.142086e+000,3.899080e+000,2.091899e+001,-1.154917e-002
1.031786e+000,2.154481e+000,3.925420e+000,2.093139e+001,-9.999795e-003
1.033714e+000,2.168425e+000,3.953308e+000,2.094378e+001,-9.999795e-003
1.035643e+000,2.177722e+000,3.984296e+000,2.095463e+001,-9.999795e-003
1.037571e+000,2.166876e+000,4.016833e+000,2.096548e+001,-1.154917e-002
1.039500e+000,2.143635e+000,4.054018e+000,2.097632e+001,-1.309855e-002
1.041429e+000,2.123493e+000,4.092752e+000,2.099026e+001,-9.999795e-003
1.043357e+000,2.098703e+000,4.131487e+000,2.100266e+001,-9.999795e-003
1.045286e+000,2.081660e+000,4.167122e+000,2.101351e+001,-1.154917e-002
1.047214e+000,2.072364e+000,4.198110e+000,2.102280e+001,-9.999795e-003
1.049143e+000,2.059969e+000,4.232196e+000,2.103055e+001,-1.154917e-002
1.051071e+000,2.033629e+000,4.258536e+000,2.104294e+001,-1.154917e-002
1.053000e+000,1.993345e+000,4.284875e+000,2.104759e+001,-1.154917e-002
1.054929e+000,1.946864e+000,4.315863e+000,2.105689e+001,-9.999795e-003
1.056857e+000,1.926722e+000,4.356146e+000,2.106463e+001,-8.450417e-003
1.058786e+000,1.926722e+000,4.402628e+000,2.107083e+001,-1.154917e-002
1.060714e+000,1.926722e+000,4.458405e+000,2.107703e+001,-9.999795e-003
1.062643e+000,1.915877e+000,4.512634e+000,2.108013e+001,-1.154917e-002
1.064571e+000,1.894185e+000,4.557566e+000,2.108478e+001,-1.154917e-002
1.066500e+000,1.872494e+000,4.597849e+000,2.108633e+001,-1.309855e-002
1.068429e+000,1.843056e+000,4.630386e+000,2.108323e+001,-9.999795e-003
1.070357e+000,1.807420e+000,4.667572e+000,2.108323e+001,-1.154917e-002
1.072286e+000,1.762488e+000,4.701658e+000,2.108168e+001,-1.154917e-002
1.074214e+000,1.745445e+000,4.734195e+000,2.107548e+001,-1.154917e-002
1.076143e+000,1.745445e+000,4.765182e+000,2.106773e+001,-1.309855e-002
1.078071e+000,1.743896e+000,4.789972e+000,2.106463e+001,-9.999795e-003
1.080000e+000,1.736149e+000,4.811664e+000,2.105999e+001,-1.154917e-002
1.081929e+000,1.702062e+000,4.828707e+000,2.105379e+001,-9.999795e-003
1.083857e+000,1.657131e+000,4.850398e+000,2.105069e+001,-1.154917e-002
1.085786e+000,1.626143e+000,4.881385e+000,2.104294e+001,-1.154917e-002
1.087714e+000,1.606001e+000,4.915472e+000,2.103520e+001,-9.999795e-003
1.089643e+000,1.582760e+000,4.957305e+000,2.103055e+001,-1.154917e-002
1.091571e+000,1.553322e+000,5.003787e+000,2.102900e+001,-1.154917e-002
1.093500e+000,1.533180e+000,5.048718e+000,2.102745e+001,-1.154917e-002
1.095429e+000,1.514588e+000,5.085903e+000,2.102125e+001,-9.999795e-003
1.097357e+000,1.500643e+000,5.115342e+000,2.101815e+001,-9.999795e-003
1.099286e+000,1.489798e+000,5.140131e+000,2.101196e+001,-9.999795e-003
1.101214e+000,1.492897e+000,5.164922e+000,2.100421e+001,-9.999795e-003
1.103143e+000,1.491347e+000,5.189712e+000,2.099956e+001,-1.154917e-002
1.105071e+000,1.486699e+000,5.219150e+000,2.099801e+001,-1.309855e-002
1.107000e+000,1.466557e+000,5.248588e+000,2.099181e+001,-1.154917e-002
1.108929e+000,1.443316e+000,5.281125e+000,2.098407e+001,-9.999795e-003
1.110857e+000,1.418526e+000,5.313662e+000,2.097477e+001,-1.154917e-002
1.112786e+000,1.385989e+000,5.343100e+000,2.096548e+001,-1.154917e-002
1.114714e+000,1.350354e+000,5.369440e+000,2.095463e+001,-9.999795e-003
1.116643e+000,1.319366e+000,5.401977e+000,2.095153e+001,-1.154917e-002
1.118571e+000,1.293027e+000,5.442260e+000,2.094378e+001,-9.999795e-003
1.120500e+000,1.244996e+000,5.476346e+000,2.094069e+001,-8.450417e-003
1.122429e+000,1.201614e+000,5.504235e+000,2.092829e+001,-1.154917e-002
1.124357e+000,1.169077e+000,5.527476e+000,2.092054e+001,-1.154917e-002
1.126286e+000,1.133441e+000,5.542970e+000,2.090970e+001,-1.154917e-002
1.128214e+000,1.096256e+000,5.546069e+000,2.090040e+001,-1.154917e-002
1.130143e+000,1.069916e+000,5.546069e+000,2.089111e+001,-1.309855e-002
1.132071e+000,1.046676e+000,5.552266e+000,2.088801e+001,-9.999795e-003
1.134000e+000,1.015688e+000,5.570858e+000,2.088801e+001,-1.154917e-002
1.135929e+000,9.754044e-001,5.589451e+000,2.088646e+001,-1.154917e-002
1.137857e+000,9.351206e-001,5.608044e+000,2.088491e+001,-9.999795e-003
1.139786e+000,9.041330e-001,5.626636e+000,2.088491e+001,-1.154917e-002
1.141714e+000,8.793430e-001,5.639031e+000,2.087871e+001,-1.154917e-002
1.143643e+000,8.684973e-001,5.646778e+000,2.086786e+001,-1.154917e-002
1.145571e+000,8.762442e-001,5.659173e+000,2.085547e+001,-1.309855e-002
1.147500e+000,8.886393e-001,5.679315e+000,2.084462e+001,-9.999795e-003
1.149429e+000,9.072318e-001,5.699457e+000,2.083223e+001,-9.999795e-003
1.151357e+000,9.103305e-001,5.713401e+000,2.082603e+001,-9.999795e-003
1.153286e+000,9.041330e-001,5.722698e+000,2.081983e+001,-9.999795e-003
1.155214e+000,8.808923e-001,5.728895e+000,2.081364e+001,-1.154917e-002
1.157143e+000,8.592011e-001,5.730444e+000,2.080434e+001,-1.154917e-002
1.159071e+000,8.483554e-001,5.738191e+000,2.079504e+001,-9.999795e-003
1.161000e+000,8.359604e-001,5.741290e+000,2.078730e+001,-9.999795e-003
1.162929e+000,8.375098e-001,5.741290e+000,2.077645e+001,-1.154917e-002
1.164857e+000,8.359604e-001,5.739741e+000,2.076715e+001,-9.999795e-003
1.166786e+000,8.344110e-001,5.739741e+000,2.075476e+001,-9.999795e-003
1.168714e+000,8.266641e-001,5.742839e+000,2.074546e+001,-1.154917e-002
1.170643e+000,8.297629e-001,5.739741e+000,2.073927e+001,-1.154917e-002
1.172571e+000,8.406085e-001,5.747488e+000,2.073307e+001,-9.999795e-003
1.174500e+000,8.390592e-001,5.755235e+000,2.073307e+001,-9.999795e-003
1.176429e+000,8.313123e-001,5.761432e+000,2.073307e+001,-9.999795e-003
1.178357e+000,8.313123e-001,5.762981e+000,2.072687e+001,-9.999795e-003
1.180286e+000,8.127198e-001,5.759882e+000,2.071912e+001,-9.999795e-003
1.182214e+000,7.941272e-001,5.750587e+000,2.071293e+001,-9.999795e-003
1.184143e+000,7.786334e-001,5.733543e+000,2.070363e+001,-1.309855e-002
1.186071e+000,7.600409e-001,5.718050e+000,2.069588e+001,-1.154917e-002
1.188000e+000,7.352509e-001,5.705655e+000,2.068969e+001,-9.999795e-003
1.189929e+000,7.275040e-001,5.702556e+000,2.068039e+001,-9.999795e-003
1.191857e+000,7.244052e-001,5.694809e+000,2.067109e+001,-1.154917e-002
1.193786e+000,7.445471e-001,5.688611e+000,2.066335e+001,-9.999795e-003
1.195714e+000,7.941272e-001,5.682414e+000,2.065870e+001,-1.154917e-002
1.197643e+000,8.359604e-001,5.677766e+000,2.064630e+001,-1.154917e-002
1.199571e+000,8.483554e-001,5.659173e+000,2.063236e+001,-9.999795e-003
1.201500e+000,8.468060e-001,5.632833e+000,2.062151e+001,-1.154917e-002
1.203429e+000,8.266641e-001,5.603395e+000,2.061377e+001,-1.154917e-002
1.205357e+000,7.848309e-001,5.578606e+000,2.060912e+001,-1.154917e-002
1.207286e+000,7.368003e-001,5.553815e+000,2.060447e+001,-1.154917e-002
1.209214e+000,6.949670e-001,5.532124e+000,2.059517e+001,-1.309855e-002
1.211143e+000,6.841214e-001,5.510433e+000,2.058433e+001,-1.154917e-002
1.213071e+000,6.856708e-001,5.479445e+000,2.057503e+001,-1.154917e-002
1.215000e+000,6.686276e-001,5.431415e+000,2.056419e+001,-9.999795e-003
1.216929e+000,6.360907e-001,5.389581e+000,2.055024e+001,-9.999795e-003
1.218857e+000,6.035538e-001,5.358594e+000,2.053165e+001,-1.154917e-002
1.220786e+000,5.617206e-001,5.332254e+000,2.051461e+001,-1.154917e-002
1.222714e+000,5.415787e-001,5.296619e+000,2.049756e+001,-1.154917e-002
1.224643e+000,5.291836e-001,5.253236e+000,2.048207e+001,-1.154917e-002
1.226571e+000,5.074924e-001,5.209854e+000,2.047277e+001,-9.999795e-003
1.228500e+000,4.641098e-001,5.172668e+000,2.046348e+001,-1.309855e-002
1.230429e+000,4.300235e-001,5.129286e+000,2.045883e+001,-9.999795e-003
1.232357e+000,4.083322e-001,5.085903e+000,2.045263e+001,-1.154917e-002
1.234286e+000,3.974865e-001,5.048718e+000,2.044488e+001,-1.154917e-002
1.236214e+000,3.943878e-001,5.022379e+000,2.042319e+001,-9.999795e-003
1.238143e+000,3.943878e-001,5.000688e+000,2.039375e+001,-1.154917e-002
1.240071e+000,3.990359e-001,4.985194e+000,2.036897e+001,-8.450417e-003
1.242000e+000,3.943878e-001,4.965052e+000,2.035192e+001,-1.309855e-002
1.243929e+000,3.680484e-001,4.934064e+000,2.033953e+001,-1.154917e-002
1.245857e+000,3.386102e-001,4.896879e+000,2.033488e+001,-1.154917e-002
1.247786e+000,3.169189e-001,4.847299e+000,2.033333e+001,-1.309855e-002
1.249714e+000,2.998757e-001,4.793071e+000,2.033333e+001,-1.309855e-002
1.251643e+000,2.967770e-001,4.737293e+000,2.033333e+001,-1.154917e-002
1.253571e+000,3.045239e-001,4.678417e+000,2.033023e+001,-1.154917e-002
1.255500e+000,3.107214e-001,4.616442e+000,2.032868e+001,-9.999795e-003
1.257429e+000,2.967770e-001,4.554467e+000,2.032093e+001,-9.999795e-003
1.259357e+000,2.657894e-001,4.506436e+000,2.030544e+001,-1.154917e-002
1.261286e+000,2.348019e-001,4.478547e+000,2.028375e+001,-9.999795e-003
1.263214e+000,2.131106e-001,4.449109e+000,2.025896e+001,-9.999795e-003
1.265143e+000,1.960674e-001,4.407276e+000,2.024037e+001,-1.154917e-002
1.267071e+000,1.852218e-001,4.359245e+000,2.022952e+001,-1.154917e-002
1.269000e+000,1.759255e-001,4.300369e+000,2.022487e+001,-9.999795e-003
1.270929e+000,1.743761e-001,4.229097e+000,2.021403e+001,-1.154917e-002
1.272857e+000,1.774749e-001,4.151628e+000,2.020628e+001,-1.154917e-002
1.274786e+000,1.774749e-001,4.074160e+000,2.019543e+001,-1.154917e-002
1.276714e+000,1.681786e-001,4.010635e+000,2.018304e+001,-9.999795e-003
1.278643e+000,1.480367e-001,3.954858e+000,2.017064e+001,-1.154917e-002
1.280571e+000,1.278948e-001,3.906827e+000,2.015980e+001,-1.154917e-002
1.282500e+000,1.108517e-001,3.868093e+000,2.015360e+001,-1.309855e-002
1.284429e+000,9.845664e-002,3.803019e+000,2.015360e+001,-9.999795e-003
1.286357e+000,9.070975e-002,3.730198e+000,2.016135e+001,-1.154917e-002
1.288286e+000,8.451224e-002,3.651180e+000,2.016909e+001,-1.154917e-002
1.290214e+000,7.831473e-002,3.579908e+000,2.017374e+001,-1.154917e-002
1.292143e+000,7.521597e-002,3.525680e+000,2.017219e+001,-1.154917e-002
1.294071e+000,6.901847e-002,3.488495e+000,2.017374e+001,-1.154917e-002
1.296000e+000,5.507407e-002,3.466804e+000,2.016755e+001,-1.309855e-002
1.297929e+000,3.803091e-002,3.435816e+000,2.016135e+001,-9.999795e-003
1.299857e+000,2.718527e-002,3.373841e+000,2.016290e+001,-1.154917e-002
1.301786e+000,2.098776e-002,3.302570e+000,2.015980e+001,-9.999795e-003
1.303714e+000,2.253714e-002,3.231298e+000,2.015205e+001,-1.154917e-002
1.305643e+000,2.098776e-002,3.170872e+000,2.014430e+001,-1.154917e-002
1.307571e+000,1.479025e-002,3.129039e+000,2.014430e+001,-1.309855e-002
1.309500e+000,8.592737e-003,3.099601e+000,2.014585e+001,-1.154917e-002
1.311429e+000,5.493982e-003,3.063966e+000,2.014740e+001,-1.154917e-002
1.313357e+000,8.458487e-004,3.023682e+000,2.014585e+001,-8.450417e-003
1.315286e+000,-7.035290e-004,2.989595e+000,2.013191e+001,-1.154917e-002
1.317214e+000,-3.802284e-003,2.950861e+000,2.011332e+001,-1.154917e-002
1.319143e+000,-5.351662e-003,2.907478e+000,2.009318e+001,-1.154917e-002
1.321071e+000,-9.999795e-003,2.856349e+000,2.007923e+001,-9.999795e-003
1.323000e+000,-1.309855e-002,2.799022e+000,2.006993e+001,-9.999795e-003
1.324929e+000,-1.309855e-002,2.746343e+000,2.006529e+001,-1.154917e-002
1.326857e+000,-1.154917e-002,2.709158e+000,2.005444e+001,-9.999795e-003
1.328786e+000,-9.999795e-003,2.675072e+000,2.003740e+001,-1.154917e-002
1.330714e+000,-9.999795e-003,2.644084e+000,2.002036e+001,-1.154917e-002
1.332643e+000,-1.154917e-002,2.611547e+000,2.000486e+001,-1.154917e-002
1.334571e+000,-1.464793e-002,2.585208e+000,1.999092e+001,-1.154917e-002
1.336500e+000,-1.774668e-002,2.555770e+000,1.997077e+001,-8.450417e-003
1.338429e+000,-1.619731e-002,2.510838e+000,1.994598e+001,-9.999795e-003
1.340357e+000,-1.619731e-002,2.461258e+000,1.991965e+001,-1.154917e-002
1.342286e+000,-1.619731e-002,2.416326e+000,1.988556e+001,-1.154917e-002
1.344214e+000,-1.619731e-002,2.376042e+000,1.985147e+001,-1.154917e-002
1.346143e+000,-1.619731e-002,2.337307e+000,1.982358e+001,-1.154917e-002
1.348071e+000,-1.619731e-002,2.298573e+000,1.980654e+001,-1.154917e-002
1.350000e+000,-1.774668e-002,2.269135e+000,1.978795e+001,-9.999795e-003
1.351929e+000,-1.774668e-002,2.242795e+000,1.976626e+001,-1.154917e-002
1.353857e+000,-1.464793e-002,2.219555e+000,1.974611e+001,-1.154917e-002
1.355786e+000,-1.929606e-002,2.196314e+000,1.972907e+001,-1.309855e-002
1.357714e+000,-1.619731e-002,2.176172e+000,1.971513e+001,-9.999795e-003
1.359643e+000,-1.774668e-002,2.166876e+000,1.969808e+001,-1.309855e-002
1.361571e+000,-1.774668e-002,2.145185e+000,1.968259e+001,-1.154917e-002
1.363500e+000,-1.619731e-002,2.114197e+000,1.967794e+001,-1.154917e-002
1.365429e+000,-1.929606e-002,2.073913e+000,1.967019e+001,-1.154917e-002
1.367357e+000,-1.774668e-002,2.030531e+000,1.966090e+001,-1.154917e-002
1.369286e+000,-1.929606e-002,1.987148e+000,1.964231e+001,-1.154917e-002
1.371214e+000,-1.774668e-002,1.940667e+000,1.962991e+001,-1.154917e-002
1.373143e+000,-1.619731e-002,1.887988e+000,1.962216e+001,-1.154917e-002
1.375071e+000,-1.619731e-002,1.833760e+000,1.961597e+001,-9.999795e-003
1.377000e+000,-1.774668e-002,1.787278e+000,1.960667e+001,-9.999795e-003
1.378929e+000,-1.464793e-002,1.753192e+000,1.959273e+001,-1.154917e-002
1.380857e+000,-1.619731e-002,1.726853e+000,1.957723e+001,-9.999795e-003
1.382786e+000,-1.619731e-002,1.706711e+000,1.956019e+001,-9.999795e-003
1.384714e+000,-1.619731e-002,1.680371e+000,1.954469e+001,-9.999795e-003
1.386643e+000,-1.464793e-002,1.654032e+000,1.953385e+001,-1.154917e-002
1.388571e+000,-1.619731e-002,1.630791e+000,1.953385e+001,-9.999795e-003
1.390500e+000,-1.929606e-002,1.607551e+000,1.953075e+001,-1.154917e-002
1.392429e+000,-1.619731e-002,1.581211e+000,1.952920e+001,-1.154917e-002
1.394357e+000,-1.619731e-002,1.557970e+000,1.952146e+001,-9.999795e-003
1.396286e+000,-1.774668e-002,1.536279e+000,1.950596e+001,-1.154917e-002
1.398214e+000,-1.619731e-002,1.509940e+000,1.949202e+001,-1.154917e-002
1.400143e+000,-1.619731e-002,1.478952e+000,1.948117e+001,-1.309855e-002
1.402071e+000,-1.774668e-002,1.451063e+000,1.947807e+001,-9.999795e-003
1.404000e+000,-1.774668e-002,1.421625e+000,1.947807e+001,-9.999795e-003
1.405929e+000,-1.774668e-002,1.396835e+000,1.948117e+001,-9.999795e-003
1.407857e+000,-1.619731e-002,1.384440e+000,1.948737e+001,-1.154917e-002
1.409786e+000,-1.774668e-002,1.378243e+000,1.949047e+001,-1.154917e-002
1.411714e+000,-1.774668e-002,1.368946e+000,1.948427e+001,-9.999795e-003
1.413643e+000,-1.774668e-002,1.353453e+000,1.946878e+001,-1.154917e-002
1.415571e+000,-1.619731e-002,1.339508e+000,1.945173e+001,-9.999795e-003
1.417500e+000,-1.774668e-002,1.328663e+000,1.943624e+001,-9.999795e-003
1.419429e+000,-1.774668e-002,1.317817e+000,1.943159e+001,-1.154917e-002
1.421357e+000,-1.774668e-002,1.311619e+000,1.943159e+001,-1.154917e-002
1.423286e+000,-1.619731e-002,1.300774e+000,1.943004e+001,-1.154917e-002
1.425214e+000,-1.619731e-002,1.289928e+000,1.941920e+001,-9.999795e-003
1.427143e+000,-1.774668e-002,1.283731e+000,1.940060e+001,-1.309855e-002
1.429071e+000,-1.619731e-002,1.282181e+000,1.938666e+001,-1.154917e-002
1.431000e+000,-1.774668e-002,1.286829e+000,1.938511e+001,-1.154917e-002
1.432929e+000,-1.619731e-002,1.288379e+000,1.938821e+001,-1.154917e-002
1.434857e+000,-1.619731e-002,1.285280e+000,1.939596e+001,-9.999795e-003
1.436786e+000,-1.774668e-002,1.280632e+000,1.940370e+001,-1.154917e-002
1.438714e+000,-1.774668e-002,1.280632e+000,1.941920e+001,-9.999795e-003
1.440643e+000,-1.774668e-002,1.282181e+000,1.943004e+001,-1.309855e-002
1.442571e+000,-1.774668e-002,1.291477e+000,1.943159e+001,-9.999795e-003
1.444500e+000,-1.619731e-002,1.296126e+000,1.942384e+001,-9.999795e-003
1.446429e+000,-1.464793e-002,1.293027e+000,1.940835e+001,-9.999795e-003
1.448357e+000,-1.619731e-002,1.291477e+000,1.938821e+001,-1.154917e-002
1.450286e+000,-1.929606e-002,1.293027e+000,1.937581e+001,-1.154917e-002
1.452214e+000,-1.619731e-002,1.300774e+000,1.936962e+001,-9.999795e-003
1.454143e+000,-1.774668e-002,1.303872e+000,1.936187e+001,-1.309855e-002
1.456071e+000,-1.619731e-002,1.311619e+000,1.934947e+001,-1.154917e-002
1.458000e+000,-1.774668e-002,1.314718e+000,1.933708e+001,-9.999795e-003
1.459929e+000,-1.619731e-002,1.319366e+000,1.932933e+001,-1.154917e-002
1.461857e+000,-1.619731e-002,1.324014e+000,1.932933e+001,-1.154917e-002
1.463786e+000,-1.774668e-002,1.330212e+000,1.934483e+001,-1.154917e-002
1.465714e+000,-1.774668e-002,1.339508e+000,1.936652e+001,-1.154917e-002
1.467643e+000,-1.774668e-002,1.348804e+000,1.938201e+001,-1.154917e-002
1.469571e+000,-1.774668e-002,1.358101e+000,1.939441e+001,-1.154917e-002
1.471500e+000,-1.774668e-002,1.367397e+000,1.940990e+001,-1.154917e-002
1.473429e+000,-1.774668e-002,1.382891e+000,1.942849e+001,-1.154917e-002
1.475357e+000,-1.774668e-002,1.401483e+000,1.944089e+001,-1.154917e-002
1.477286e+000,-1.619731e-002,1.421625e+000,1.945018e+001,-9.999795e-003
1.479214e+000,-1.619731e-002,1.438668e+000,1.944708e+001,-9.999795e-003
1.481143e+000,-1.774668e-002,1.455711e+000,1.944089e+001,-9.999795e-003
1.483071e+000,-1.619731e-002,1.463458e+000,1.944244e+001,-1.154917e-002
1.485000e+000,-1.774668e-002,1.471205e+000,1.945328e+001,-9.999795e-003
1.486929e+000,-1.464793e-002,1.477403e+000,1.947187e+001,-1.154917e-002
1.488857e+000,-1.774668e-002,1.486699e+000,1.948582e+001,-1.154917e-002
1.490786e+000,-1.774668e-002,1.503742e+000,1.949512e+001,-1.154917e-002
1.492714e+000,-1.619731e-002,1.522335e+000,1.950286e+001,-1.309855e-002
1.494643e+000,-1.464793e-002,1.539378e+000,1.950906e+001,-1.154917e-002
1.496571e+000,-1.774668e-002,1.550223e+000,1.951526e+001,-1.154917e-002
1.498500e+000,-1.774668e-002,1.559520e+000,1.952610e+001,-1.154917e-002
1.500429e+000,-1.774668e-002,1.570365e+000,1.953850e+001,-9.999795e-003
1.502357e+000,-1.929606e-002,1.588958e+000,1.954779e+001,-1.154917e-002
1.504286e+000,-1.619731e-002,1.606001e+000,1.955399e+001,-1.154917e-002
1.506214e+000,-1.774668e-002,1.619946e+000,1.955554e+001,-1.154917e-002
1.508143e+000,-1.619731e-002,1.638538e+000,1.955554e+001,-1.309855e-002
1.510071e+000,-1.774668e-002,1.654032e+000,1.956174e+001,-1.154917e-002
1.512000e+000,-1.619731e-002,1.664877e+000,1.956794e+001,-9.999795e-003
1.513929e+000,-1.774668e-002,1.678822e+000,1.957723e+001,-1.154917e-002
1.515857e+000,-1.774668e-002,1.689667e+000,1.959273e+001,-1.309855e-002
1.517786e+000,-1.619731e-002,1.703612e+000,1.961287e+001,-1.154917e-002
1.519714e+000,-1.774668e-002,1.723754e+000,1.963301e+001,-1.154917e-002
1.521643e+000,-1.619731e-002,1.753192e+000,1.964850e+001,-1.464793e-002
1.523571e+000,-1.619731e-002,1.781081e+000,1.966555e+001,-9.999795e-003
1.525500e+000,-1.929606e-002,1.804321e+000,1.967949e+001,-9.999795e-003
1.527429e+000,-1.774668e-002,1.819815e+000,1.969189e+001,-9.999795e-003
1.529357e+000,-1.929606e-002,1.830661e+000,1.970118e+001,-1.309855e-002
1.531286e+000,-1.774668e-002,1.843056e+000,1.970273e+001,-1.154917e-002
1.533214e+000,-1.619731e-002,1.857000e+000,1.970428e+001,-1.154917e-002
1.535143e+000,-1.774668e-002,1.877142e+000,1.970738e+001,-1.309855e-002
1.537071e+000,-1.464793e-002,1.897284e+000,1.971513e+001,-9.999795e-003
1.539000e+000,-1.619731e-002,1.914327e+000,1.972132e+001,-1.154917e-002
1.540929e+000,-1.464793e-002,1.925173e+000,1.972597e+001,-1.154917e-002
1.542857e+000,-1.774668e-002,1.934469e+000,1.973062e+001,-1.154917e-002
1.544786e+000,-1.774668e-002,1.956160e+000,1.973372e+001,-1.154917e-002
1.546714e+000,-1.619731e-002,1.970105e+000,1.974147e+001,-1.154917e-002
1.548643e+000,-1.619731e-002,1.985599e+000,1.974611e+001,-1.154917e-002
1.550571e+000,-1.774668e-002,1.999543e+000,1.976006e+001,-1.154917e-002
1.552500e+000,-1.929606e-002,2.018136e+000,1.976936e+001,-1.154917e-002
1.554429e+000,-1.619731e-002,2.035179e+000,1.977865e+001,-1.154917e-002
1.556357e+000,-1.774668e-002,2.056870e+000,1.979105e+001,-9.999795e-003
1.558286e+000,-1.774668e-002,2.081660e+000,1.980189e+001,-9.999795e-003
1.560214e+000,-1.774668e-002,2.108000e+000,1.981274e+001,-1.154917e-002
1.562143e+000,-1.774668e-002,2.131240e+000,1.982513e+001,-1.309855e-002
1.564071e+000,-1.619731e-002,2.151382e+000,1.983908e+001,-1.154917e-002
1.566000e+000,-9.999795e-003,2.163777e+000,1.985302e+001,-1.154917e-002
1.567929e+000,-2.252907e-003,2.173073e+000,1.986077e+001,-1.309855e-002
1.569857e+000,7.043359e-003,2.180820e+000,1.986542e+001,-9.999795e-003
1.571786e+000,1.479025e-002,2.191666e+000,1.987161e+001,-9.999795e-003
1.573714e+000,2.408651e-002,2.196314e+000,1.988091e+001,-9.999795e-003
1.575643e+000,3.028402e-002,2.200962e+000,1.988866e+001,-1.309855e-002
1.577571e+000,3.338278e-002,2.207160e+000,1.990105e+001,-1.154917e-002
1.579500e+000,4.732718e-002,2.219555e+000,1.990880e+001,-9.999795e-003
1.581429e+000,6.591971e-002,2.231950e+000,1.991810e+001,-9.999795e-003
1.583357e+000,7.676535e-002,2.244345e+000,1.992739e+001,-9.999795e-003
1.585286e+000,8.451224e-002,2.253641e+000,1.993359e+001,-9.999795e-003
1.587214e+000,8.761100e-002,2.259839e+000,1.994598e+001,-1.154917e-002
1.589143e+000,8.916038e-002,2.273783e+000,1.995838e+001,-1.309855e-002
1.591071e+000,8.761100e-002,2.293925e+000,1.997077e+001,-1.154917e-002
1.593000e+000,8.606162e-002,2.314067e+000,1.998317e+001,-1.309855e-002
1.594929e+000,9.070975e-002,2.332659e+000,1.999247e+001,-9.999795e-003
1.596857e+000,9.690727e-002,2.357449e+000,1.999557e+001,-9.999795e-003
1.598786e+000,1.093023e-001,2.388437e+000,2.000021e+001,-9.999795e-003
1.600714e+000,1.201479e-001,2.420974e+000,2.000641e+001,-1.154917e-002
1.602643e+000,1.340923e-001,2.447313e+000,2.001261e+001,-1.154917e-002
1.604571e+000,1.449380e-001,2.470554e+000,2.001880e+001,-1.154917e-002
1.606500e+000,1.526849e-001,2.489146e+000,2.002655e+001,-9.999795e-003
1.608429e+000,1.573330e-001,2.503091e+000,2.003275e+001,-9.999795e-003
1.610357e+000,1.573330e-001,2.523233e+000,2.003740e+001,-9.999795e-003
1.612286e+000,1.588824e-001,2.546473e+000,2.004515e+001,-1.309855e-002
1.614214e+000,1.635305e-001,2.571263e+000,2.005134e+001,-1.154917e-002
1.616143e+000,1.666293e-001,2.591405e+000,2.005599e+001,-1.309855e-002
1.618071e+000,1.697280e-001,2.609998e+000,2.006374e+001,-1.154917e-002
1.620000e+000,1.681786e-001,2.625492e+000,2.006993e+001,-1.154917e-002
1.621929e+000,1.728268e-001,2.642535e+000,2.007458e+001,-1.309855e-002
1.623857e+000,1.805737e-001,2.656479e+000,2.007923e+001,-1.154917e-002
1.625786e+000,1.960674e-001,2.676621e+000,2.008698e+001,-9.999795e-003
1.627714e+000,2.177587e-001,2.704510e+000,2.009163e+001,-9.999795e-003
1.629643e+000,2.440981e-001,2.733948e+000,2.009782e+001,-1.154917e-002
1.631571e+000,2.642401e-001,2.758738e+000,2.010712e+001,-1.154917e-002
1.633500e+000,2.828326e-001,2.780429e+000,2.011332e+001,-1.154917e-002
1.635429e+000,3.107214e-001,2.797472e+000,2.012261e+001,-1.154917e-002
1.637357e+000,3.324127e-001,2.809868e+000,2.013036e+001,-1.154917e-002
1.639286e+000,3.463571e-001,2.825361e+000,2.013656e+001,-9.999795e-003
1.641214e+000,3.634002e-001,2.843954e+000,2.014121e+001,-9.999795e-003
1.643143e+000,3.788940e-001,2.867194e+000,2.014740e+001,-1.154917e-002
1.645071e+000,3.897396e-001,2.885787e+000,2.015515e+001,-1.154917e-002
1.647000e+000,4.036840e-001,2.898182e+000,2.016290e+001,-9.999795e-003
1.648929e+000,4.191778e-001,2.905929e+000,2.017219e+001,-1.154917e-002
1.650857e+000,4.346716e-001,2.907478e+000,2.018149e+001,-9.999795e-003
1.652786e+000,4.517148e-001,2.902830e+000,2.019389e+001,-9.999795e-003
1.654714e+000,4.780542e-001,2.896633e+000,2.020008e+001,-1.154917e-002
1.656643e+000,5.012949e-001,2.891984e+000,2.020938e+001,-1.154917e-002
1.658571e+000,5.198874e-001,2.887336e+000,2.021868e+001,-9.999795e-003
1.660500e+000,5.322824e-001,2.888886e+000,2.022797e+001,-9.999795e-003
1.662429e+000,5.508749e-001,2.895083e+000,2.023727e+001,-9.999795e-003
1.664357e+000,5.601712e-001,2.902830e+000,2.024347e+001,-1.154917e-002
1.666286e+000,5.694674e-001,2.912127e+000,2.025121e+001,-9.999795e-003
1.668214e+000,5.818624e-001,2.921423e+000,2.026206e+001,-1.154917e-002
1.670143e+000,6.066525e-001,2.932268e+000,2.026980e+001,-1.309855e-002
1.672071e+000,6.376401e-001,2.949311e+000,2.028220e+001,-1.154917e-002
1.674000e+000,6.639795e-001,2.964805e+000,2.029150e+001,-9.999795e-003
1.675929e+000,6.856708e-001,2.980299e+000,2.030544e+001,-9.999795e-003
1.677857e+000,6.996152e-001,2.991145e+000,2.031629e+001,-9.999795e-003
1.679786e+000,7.120102e-001,2.998892e+000,2.032558e+001,-9.999795e-003
1.681714e+000,7.166584e-001,3.005089e+000,2.034108e+001,-9.999795e-003
1.683643e+000,7.104608e-001,3.009737e+000,2.035347e+001,-1.154917e-002
1.685571e+000,7.058127e-001,3.008188e+000,2.036741e+001,-1.154917e-002
1.687500e+000,7.151089e-001,3.001990e+000,2.037981e+001,-9.999795e-003
1.689429e+000,7.228559e-001,2.994243e+000,2.039375e+001,-1.154917e-002
1.691357e+000,7.259546e-001,2.992694e+000,2.040615e+001,-9.999795e-003
1.693286e+000,7.259546e-001,3.003540e+000,2.041700e+001,-1.154917e-002
1.695214e+000,7.321521e-001,3.028330e+000,2.042629e+001,-1.154917e-002
1.697143e+000,7.429978e-001,3.056219e+000,2.043249e+001,-1.309855e-002
1.699071e+000,7.615903e-001,3.074811e+000,2.043559e+001,-1.154917e-002
1.701000e+000,7.739853e-001,3.088756e+000,2.044179e+001,-1.154917e-002
1.702929e+000,7.894791e-001,3.099601e+000,2.044798e+001,-1.154917e-002
1.704857e+000,8.065223e-001,3.110447e+000,2.045263e+001,-9.999795e-003
1.706786e+000,8.204666e-001,3.119743e+000,2.045883e+001,-1.154917e-002
1.708714e+000,8.173679e-001,3.132138e+000,2.046503e+001,-1.154917e-002
1.710643e+000,8.065223e-001,3.150731e+000,2.047122e+001,-1.154917e-002
1.712571e+000,8.018741e-001,3.169323e+000,2.047277e+001,-1.154917e-002
1.714500e+000,7.987754e-001,3.187916e+000,2.047587e+001,-1.154917e-002
1.716429e+000,8.034235e-001,3.198761e+000,2.047897e+001,-1.154917e-002
1.718357e+000,8.080716e-001,3.203409e+000,2.048982e+001,-1.154917e-002
1.720286e+000,8.096210e-001,3.204959e+000,2.049756e+001,-9.999795e-003
1.722214e+000,8.080716e-001,3.204959e+000,2.050376e+001,-1.154917e-002
1.724143e+000,8.049728e-001,3.204959e+000,2.051616e+001,-1.154917e-002
1.726071e+000,7.956766e-001,3.211156e+000,2.052855e+001,-1.154917e-002
1.728000e+000,7.910284e-001,3.217354e+000,2.053785e+001,-9.999795e-003
1.729929e+000,7.925779e-001,3.231298e+000,2.054404e+001,-9.999795e-003
1.731857e+000,7.987754e-001,3.240595e+000,2.055179e+001,-1.154917e-002
1.733786e+000,8.127198e-001,3.252990e+000,2.055644e+001,-9.999795e-003
1.735714e+000,8.204666e-001,3.265385e+000,2.055954e+001,-1.154917e-002
1.737643e+000,8.251148e-001,3.279329e+000,2.055954e+001,-1.154917e-002
1.739571e+000,8.282135e-001,3.287076e+000,2.056729e+001,-1.154917e-002
1.741500e+000,8.282135e-001,3.290175e+000,2.057038e+001,-1.154917e-002
1.743429e+000,8.390592e-001,3.287076e+000,2.057193e+001,-1.154917e-002
1.745357e+000,8.499048e-001,3.287076e+000,2.057503e+001,-1.154917e-002
1.747286e+000,8.576517e-001,3.291724e+000,2.057813e+001,-9.999795e-003
1.749214e+000,8.622999e-001,3.294823e+000,2.058123e+001,-1.154917e-002
1.751143e+000,8.684973e-001,3.296372e+000,2.058123e+001,-1.154917e-002
1.753071e+000,8.715961e-001,3.301020e+000,2.058898e+001,-9.999795e-003
1.755000e+000,8.731455e-001,3.307218e+000,2.059517e+001,-9.999795e-003
1.756929e+000,8.777936e-001,3.319613e+000,2.060137e+001,-9.999795e-003
1.758857e+000,8.824418e-001,3.325810e+000,2.060447e+001,-9.999795e-003
1.760786e+000,8.855405e-001,3.338205e+000,2.060757e+001,-1.154917e-002
1.762714e+000,8.855405e-001,3.344403e+000,2.060912e+001,-1.154917e-002
1.764643e+000,8.855405e-001,3.349051e+000,2.061067e+001,-1.309855e-002
1.766571e+000,8.855405e-001,3.353699e+000,2.061222e+001,-9.999795e-003
1.768500e+000,8.870898e-001,3.359897e+000,2.060912e+001,-9.999795e-003
1.770429e+000,8.870898e-001,3.367644e+000,2.061222e+001,-1.154917e-002
1.772357e+000,8.870898e-001,3.373841e+000,2.061532e+001,-1.154917e-002
1.774286e+000,8.886393e-001,3.378489e+000,2.061532e+001,-9.999795e-003
1.776214e+000,8.917380e-001,3.381588e+000,2.061841e+001,-1.154917e-002
1.778143e+000,8.917380e-001,3.384687e+000,2.061841e+001,-9.999795e-003
1.780071e+000,8.932874e-001,3.383137e+000,2.062306e+001,-9.999795e-003
1.782000e+000,8.948368e-001,3.383137e+000,2.062771e+001,-9.999795e-003
1.783929e+000,8.917380e-001,3.381588e+000,2.063081e+001,-9.999795e-003
1.785857e+000,8.793430e-001,3.384687e+000,2.063081e+001,-1.154917e-002
1.787786e+000,8.653986e-001,3.387785e+000,2.063236e+001,-1.154917e-002
1.789714e+000,8.483554e-001,3.390884e+000,2.063701e+001,-1.154917e-002
1.791643e+000,8.359604e-001,3.393983e+000,2.063701e+001,-1.309855e-002
1.793571e+000,8.204666e-001,3.395532e+000,2.064011e+001,-9.999795e-003
1.795500e+000,8.049728e-001,3.393983e+000,2.064320e+001,-1.154917e-002
1.797429e+000,7.925779e-001,3.395532e+000,2.064630e+001,-9.999795e-003
1.799357e+000,7.817322e-001,3.397082e+000,2.065250e+001,-1.154917e-002
1.801286e+000,7.786334e-001,3.397082e+000,2.065560e+001,-1.154917e-002
1.803214e+000,7.739853e-001,3.392434e+000,2.066025e+001,-9.999795e-003
1.805143e+000,7.724359e-001,3.389335e+000,2.066490e+001,-1.154917e-002
1.807071e+000,7.646890e-001,3.389335e+000,2.067109e+001,-9.999795e-003
1.809000e+000,7.522940e-001,3.386236e+000,2.067729e+001,-9.999795e-003
1.810929e+000,7.414483e-001,3.383137e+000,2.068039e+001,-1.154917e-002
1.812857e+000,7.290534e-001,3.380038e+000,2.068349e+001,-1.154917e-002
1.814786e+000,7.135596e-001,3.373841e+000,2.068659e+001,-1.154917e-002
1.816714e+000,6.965164e-001,3.367644e+000,2.068659e+001,-9.999795e-003
1.818643e+000,6.810226e-001,3.361446e+000,2.068969e+001,-9.999795e-003
1.820571e+000,6.794733e-001,3.352150e+000,2.069279e+001,-1.154917e-002
1.822500e+000,6.763745e-001,3.344403e+000,2.069279e+001,-1.154917e-002
1.824429e+000,6.748251e-001,3.338205e+000,2.069588e+001,-1.154917e-002
1.826357e+000,6.732758e-001,3.335107e+000,2.070208e+001,-9.999795e-003
1.828286e+000,6.624301e-001,3.335107e+000,2.071138e+001,-9.999795e-003
1.830214e+000,6.422882e-001,3.332008e+000,2.071758e+001,-9.999795e-003
1.832143e+000,6.174982e-001,3.318063e+000,2.072067e+001,-9.999795e-003
1.834071e+000,5.756649e-001,3.301020e+000,2.072687e+001,-1.154917e-002
1.836000e+000,5.322824e-001,3.285527e+000,2.073152e+001,-9.999795e-003
1.837929e+000,5.012949e-001,3.274681e+000,2.073152e+001,-1.154917e-002
1.839857e+000,4.796036e-001,3.263835e+000,2.072997e+001,-1.154917e-002
1.841786e+000,4.656591e-001,3.254539e+000,2.072997e+001,-1.154917e-002
1.843714e+000,4.579123e-001,3.248341e+000,2.073307e+001,-1.154917e-002
1.845643e+000,4.579123e-001,3.240595e+000,2.073462e+001,-1.154917e-002
1.847571e+000,4.610110e-001,3.232848e+000,2.073772e+001,-1.154917e-002
1.849500e+000,4.625604e-001,3.223551e+000,2.073927e+001,-1.154917e-002
1.851429e+000,4.610110e-001,3.217354e+000,2.074082e+001,-9.999795e-003
1.853357e+000,4.625604e-001,3.209607e+000,2.074391e+001,-9.999795e-003
1.855286e+000,4.641098e-001,3.200311e+000,2.074546e+001,-9.999795e-003
1.857214e+000,4.532641e-001,3.191015e+000,2.074856e+001,-9.999795e-003
1.859143e+000,4.393197e-001,3.181718e+000,2.075011e+001,-1.309855e-002
1.861071e+000,4.253753e-001,3.173971e+000,2.075321e+001,-9.999795e-003
1.863000e+000,4.176284e-001,3.163126e+000,2.075786e+001,-1.154917e-002
1.864929e+000,4.145297e-001,3.150731e+000,2.076096e+001,-1.154917e-002
1.866857e+000,4.114309e-001,3.141434e+000,2.076406e+001,-1.154917e-002
1.868786e+000,4.114309e-001,3.132138e+000,2.076715e+001,-1.154917e-002
1.870714e+000,4.114309e-001,3.125941e+000,2.077025e+001,-1.154917e-002
1.872643e+000,3.990359e-001,3.115095e+000,2.077335e+001,-1.309855e-002
1.874571e+000,3.850915e-001,3.110447e+000,2.077025e+001,-1.154917e-002
1.876500e+000,3.788940e-001,3.102700e+000,2.077025e+001,-9.999795e-003
1.878429e+000,3.726965e-001,3.096502e+000,2.077180e+001,-1.154917e-002
1.880357e+000,3.680484e-001,3.088756e+000,2.077335e+001,-9.999795e-003
1.882286e+000,3.664990e-001,3.079459e+000,2.077645e+001,-9.999795e-003
1.884214e+000,3.634002e-001,3.073262e+000,2.077645e+001,-9.999795e-003
1.886143e+000,3.634002e-001,3.063966e+000,2.077800e+001,-1.309855e-002
1.888071e+000,3.603015e-001,3.057768e+000,2.078265e+001,-1.154917e-002
1.890000e+000,3.572027e-001,3.051570e+000,2.078730e+001,-9.999795e-003
1.891929e+000,3.587521e-001,3.046922e+000,2.079040e+001,-1.154917e-002
1.893857e+000,3.556533e-001,3.043823e+000,2.079349e+001,-9.999795e-003
1.895786e+000,3.479064e-001,3.040725e+000,2.079349e+001,-1.154917e-002
1.897714e+000,3.401596e-001,3.032978e+000,2.079349e+001,-9.999795e-003
1.899643e+000,3.277645e-001,3.020583e+000,2.079040e+001,-1.154917e-002
1.901571e+000,3.169189e-001,3.012836e+000,2.078885e+001,-8.450417e-003
1.903500e+000,3.091720e-001,3.001990e+000,2.078885e+001,-1.154917e-002
1.905429e+000,3.060732e-001,2.991145e+000,2.078730e+001,-9.999795e-003
1.907357e+000,2.998757e-001,2.980299e+000,2.078575e+001,-1.154917e-002
1.909286e+000,2.952276e-001,2.971003e+000,2.078110e+001,-1.154917e-002
1.911214e+000,2.797338e-001,2.957058e+000,2.077800e+001,-9.999795e-003
1.913143e+000,2.611413e-001,2.938466e+000,2.077645e+001,-1.309855e-002
1.915071e+000,2.440981e-001,2.921423e+000,2.077490e+001,-1.154917e-002
1.917000e+000,2.379006e-001,2.907478e+000,2.077490e+001,-1.154917e-002
1.918929e+000,2.317031e-001,2.895083e+000,2.077335e+001,-1.154917e-002
1.920857e+000,2.255056e-001,2.879590e+000,2.077025e+001,-9.999795e-003
1.922786e+000,2.224068e-001,2.865645e+000,2.077025e+001,-1.309855e-002
1.924714e+000,2.208575e-001,2.847053e+000,2.077025e+001,-9.999795e-003
1.926643e+000,2.146600e-001,2.828460e+000,2.076870e+001,-1.154917e-002
1.928571e+000,2.022649e-001,2.811417e+000,2.077025e+001,-1.154917e-002
1.930500e+000,1.883205e-001,2.802121e+000,2.076561e+001,-1.154917e-002
1.932429e+000,1.697280e-001,2.797472e+000,2.076096e+001,-9.999795e-003
1.934357e+000,1.526849e-001,2.795923e+000,2.075786e+001,-1.154917e-002
1.936286e+000,1.356417e-001,2.795923e+000,2.075786e+001,-9.999795e-003
1.938214e+000,1.201479e-001,2.799022e+000,2.075631e+001,-1.154917e-002
1.940143e+000,1.062035e-001,2.800571e+000,2.075476e+001,-1.309855e-002
1.942071e+000,9.380851e-002,2.795923e+000,2.075476e+001,-1.154917e-002
1.944000e+000,8.916038e-002,2.788176e+000,2.075166e+001,-9.999795e-003
1.945929e+000,8.606162e-002,2.780429e+000,2.075166e+001,-1.154917e-002
1.947857e+000,9.070975e-002,2.772682e+000,2.075166e+001,-9.999795e-003
1.949786e+000,9.225913e-002,2.763386e+000,2.075166e+001,-9.999795e-003
1.951714e+000,9.380851e-002,2.752541e+000,2.075166e+001,-1.154917e-002
1.953643e+000,9.225913e-002,2.737047e+000,2.075011e+001,-1.154917e-002
1.955571e+000,9.070975e-002,2.721553e+000,2.074546e+001,-1.154917e-002
1.957500e+000,8.606162e-002,2.707609e+000,2.074391e+001,-9.999795e-003
1.959429e+000,8.296286e-002,2.698312e+000,2.074236e+001,-1.309855e-002
1.961357e+000,8.141349e-002,2.695214e+000,2.073927e+001,-1.154917e-002
1.963286e+000,7.986411e-002,2.690566e+000,2.073617e+001,-9.999795e-003
1.965214e+000,8.141349e-002,2.689016e+000,2.073307e+001,-1.154917e-002
1.967143e+000,8.606162e-002,2.681269e+000,2.072842e+001,-1.309855e-002
1.969071e+000,8.761100e-002,2.676621e+000,2.072687e+001,-1.154917e-002
1.971000e+000,8.606162e-002,2.673522e+000,2.072222e+001,-1.154917e-002
1.972929e+000,8.761100e-002,2.670424e+000,2.072067e+001,-9.999795e-003
1.974857e+000,8.606162e-002,2.665776e+000,2.071602e+001,-1.154917e-002
1.976786e+000,8.916038e-002,2.662677e+000,2.071602e+001,-1.154917e-002
1.978714e+000,9.070975e-002,2.654930e+000,2.071293e+001,-1.154917e-002
1.980643e+000,9.225913e-002,2.648732e+000,2.071138e+001,-1.154917e-002
1.982571e+000,9.380851e-002,2.637887e+000,2.070983e+001,-9.999795e-003
1.984500e+000,9.690727e-002,2.630140e+000,2.070673e+001,-1.154917e-002
1.986429e+000,9.845664e-002,2.625492e+000,2.070673e+001,-9.999795e-003
1.988357e+000,9.845664e-002,2.623942e+000,2.070673e+001,-1.154917e-002
1.990286e+000,1.000060e-001,2.622393e+000,2.070518e+001,-1.154917e-002
1.992214e+000,1.000060e-001,2.620843e+000,2.070208e+001,-1.154917e-002
1.994143e+000,9.845664e-002,2.617745e+000,2.069588e+001,-1.309855e-002
1.996071e+000,9.225913e-002,2.608449e+000,2.069433e+001,-1.154917e-002
1.998000e+000,8.606162e-002,2.596053e+000,2.068969e+001,-1.154917e-002
1.999929e+000,8.296286e-002,2.577461e+000,2.068504e+001,-1.154917e-002
2.001857e+000,7.831473e-002,2.558868e+000,2.068194e+001,-1.154917e-002
2.003786e+000,7.676535e-002,2.543375e+000,2.067729e+001,-1.154917e-002
2.005714e+000,7.211722e-002,2.534078e+000,2.067729e+001,-1.154917e-002
2.007643e+000,6.591971e-002,2.530980e+000,2.067729e+001,-1.154917e-002
2.009571e+000,5.507407e-002,2.530980e+000,2.067729e+001,-9.999795e-003
2.011500e+000,4.577780e-002,2.527881e+000,2.067729e+001,-1.154917e-002
2.013429e+000,3.803091e-002,2.524782e+000,2.067729e+001,-1.154917e-002
2.015357e+000,3.648153e-002,2.520134e+000,2.067574e+001,-9.999795e-003
2.017286e+000,3.183340e-002,2.509288e+000,2.067109e+001,-9.999795e-003
2.019214e+000,3.338278e-002,2.501541e+000,2.066800e+001,-1.154917e-002
2.021143e+000,3.338278e-002,2.493794e+000,2.066335e+001,-1.154917e-002
2.023071e+000,3.183340e-002,2.489146e+000,2.065870e+001,-1.154917e-002
2.025000e+000,2.408651e-002,2.484498e+000,2.065250e+001,-9.999795e-003
2.026929e+000,1.324087e-002,2.486048e+000,2.064940e+001,-1.154917e-002
2.028857e+000,-7.035290e-004,2.482949e+000,2.064475e+001,-9.999795e-003
2.030786e+000,-9.999795e-003,2.484498e+000,2.064011e+001,-9.999795e-003
2.032714e+000,-1.464793e-002,2.484498e+000,2.063701e+001,-1.154917e-002
2.034643e+000,-1.929606e-002,2.486048e+000,2.063236e+001,-9.999795e-003
2.036571e+000,-1.774668e-002,2.486048e+000,2.063081e+001,-9.999795e-003
2.038500e+000,-1.774668e-002,2.484498e+000,2.062771e+001,-9.999795e-003
2.040429e+000,-1.619731e-002,2.486048e+000,2.062771e+001,-9.999795e-003
2.042357e+000,-1.619731e-002,2.490696e+000,2.062151e+001,-1.154917e-002
2.044286e+000,-1.619731e-002,2.492245e+000,2.062151e+001,-1.154917e-002
2.046214e+000,-1.619731e-002,2.493794e+000,2.061532e+001,-1.154917e-002
2.048143e+000,-1.464793e-002,2.498443e+000,2.060912e+001,-1.154917e-002
2.050071e+000,-1.619731e-002,2.498443e+000,2.060447e+001,-1.154917e-002
2.052000e+000,-1.774668e-002,2.501541e+000,2.060447e+001,-9.999795e-003
2.053929e+000,-1.464793e-002,2.503091e+000,2.060292e+001,-1.154917e-002
2.055857e+000,-1.619731e-002,2.501541e+000,2.060292e+001,-1.154917e-002
2.057786e+000,-1.774668e-002,2.504640e+000,2.060137e+001,-1.154917e-002
2.059714e+000,-1.464793e-002,2.504640e+000,2.059982e+001,-9.999795e-003
2.061643e+000,-1.619731e-002,2.506190e+000,2.059672e+001,-1.154917e-002
2.063571e+000,-1.929606e-002,2.507739e+000,2.059362e+001,-1.154917e-002
2.065500e+000,-1.774668e-002,2.509288e+000,2.059208e+001,-9.999795e-003
2.067429e+000,-1.619731e-002,2.509288e+000,2.059208e+001,-1.154917e-002
2.069357e+000,-1.619731e-002,2.510838e+000,2.059053e+001,-1.154917e-002
2.071286e+000,-1.619731e-002,2.512387e+000,2.059053e+001,-1.154917e-002
2.073214e+000,-1.464793e-002,2.515486e+000,2.058743e+001,-1.154917e-002
2.075143e+000,-1.619731e-002,2.518584e+000,2.058433e+001,-1.309855e-002
2.077071e+000,-1.464793e-002,2.523233e+000,2.058433e+001,-9.999795e-003
2.079000e+000,-1.619731e-002,2.527881e+000,2.058433e+001,-1.154917e-002
2.080929e+000,-8.450417e-003,2.529430e+000,2.058433e+001,-9.999795e-003
2.082857e+000,7.043359e-003,2.535628e+000,2.058433e+001,-9.999795e-003
2.084786e+000,2.098776e-002,2.541825e+000,2.058588e+001,-9.999795e-003
2.086714e+000,3.338278e-002,2.546473e+000,2.058743e+001,-1.154917e-002
2.088643e+000,4.577780e-002,2.549572e+000,2.058898e+001,-1.309855e-002
2.090571e+000,5.197531e-002,2.549572e+000,2.058898e+001,-1.154917e-002
2.092500e+000,5.507407e-002,2.552671e+000,2.059053e+001,-1.154917e-002
2.094429e+000,5.507407e-002,2.552671e+000,2.058898e+001,-9.999795e-003
2.096357e+000,5.507407e-002,2.555770e+000,2.058898e+001,-9.999795e-003
2.098286e+000,5.197531e-002,2.560418e+000,2.058743e+001,-1.154917e-002
2.100214e+000,5.352469e-002,2.565066e+000,2.058898e+001,-1.154917e-002
2.102143e+000,5.352469e-002,2.569714e+000,2.058898e+001,-1.154917e-002
2.104071e+000,5.507407e-002,2.575912e+000,2.059053e+001,-9.999795e-003
2.106000e+000,6.127158e-002,2.583658e+000,2.059362e+001,-1.154917e-002
2.107929e+000,6.437033e-002,2.589856e+000,2.059517e+001,-8.450417e-003
2.109857e+000,6.901847e-002,2.597603e+000,2.059517e+001,-9.999795e-003
2.111786e+000,7.366660e-002,2.608449e+000,2.059982e+001,-1.154917e-002
2.113714e+000,7.831473e-002,2.619294e+000,2.059827e+001,-1.154917e-002
2.115643e+000,7.986411e-002,2.634788e+000,2.059982e+001,-1.154917e-002
2.117571e+000,8.606162e-002,2.647183e+000,2.060292e+001,-1.154917e-002
2.119500e+000,8.606162e-002,2.658029e+000,2.060292e+001,-9.999795e-003
2.121429e+000,8.296286e-002,2.664226e+000,2.060447e+001,-1.154917e-002
2.123357e+000,8.451224e-002,2.668874e+000,2.060292e+001,-9.999795e-003
2.125286e+000,8.451224e-002,2.673522e+000,2.060292e+001,-1.154917e-002
2.127214e+000,8.606162e-002,2.676621e+000,2.060137e+001,-9.999795e-003
2.129143e+000,8.606162e-002,2.678170e+000,2.059982e+001,-1.309855e-002
2.131071e+000,8.916038e-002,2.682819e+000,2.060292e+001,-9.999795e-003
2.133000e+000,9.070975e-002,2.687467e+000,2.060292e+001,-9.999795e-003
2.134929e+000,9.845664e-002,2.693664e+000,2.060137e+001,-9.999795e-003
2.136857e+000,1.077529e-001,2.698312e+000,2.060292e+001,-9.999795e-003
2.138786e+000,1.139504e-001,2.704510e+000,2.060602e+001,-1.154917e-002
2.140714e+000,1.170492e-001,2.709158e+000,2.060602e+001,-9.999795e-003
2.142643e+000,1.154998e-001,2.712257e+000,2.060292e+001,-1.309855e-002
2.144571e+000,1.185986e-001,2.716905e+000,2.060447e+001,-1.154917e-002
2.146500e+000,1.216973e-001,2.716905e+000,2.060602e+001,-9.999795e-003
2.148429e+000,1.309936e-001,2.720004e+000,2.060757e+001,-1.154917e-002
2.150357e+000,1.402898e-001,2.724652e+000,2.060912e+001,-9.999795e-003
2.152286e+000,1.495861e-001,2.726201e+000,2.060912e+001,-9.999795e-003
2.154214e+000,1.511355e-001,2.730849e+000,2.061222e+001,-9.999795e-003
2.156143e+000,1.573330e-001,2.733948e+000,2.061067e+001,-1.154917e-002
2.158071e+000,1.681786e-001,2.735497e+000,2.061377e+001,-1.154917e-002
2.160000e+000,1.805737e-001,2.740145e+000,2.061687e+001,-1.154917e-002
2.161929e+000,1.991662e-001,2.741695e+000,2.061687e+001,-9.999795e-003
2.163857e+000,2.115612e-001,2.746343e+000,2.061841e+001,-1.154917e-002
2.165786e+000,2.146600e-001,2.752541e+000,2.061841e+001,-9.999795e-003
2.167714e+000,2.115612e-001,2.764935e+000,2.061996e+001,-9.999795e-003
2.169643e+000,2.115612e-001,2.774232e+000,2.061687e+001,-1.154917e-002
2.171571e+000,2.115612e-001,2.788176e+000,2.061687e+001,-9.999795e-003
2.173500e+000,2.131106e-001,2.799022e+000,2.061996e+001,-9.999795e-003
2.175429e+000,2.208575e-001,2.808318e+000,2.061841e+001,-1.154917e-002
2.177357e+000,2.348019e-001,2.822263e+000,2.061841e+001,-1.154917e-002
2.179286e+000,2.379006e-001,2.830009e+000,2.062151e+001,-1.154917e-002
2.181214e+000,2.471969e-001,2.837756e+000,2.061996e+001,-9.999795e-003
2.183143e+000,2.533944e-001,2.847053e+000,2.062306e+001,-1.154917e-002
2.185071e+000,2.688882e-001,2.854800e+000,2.062771e+001,-1.154917e-002
2.187000e+000,2.812832e-001,2.859448e+000,2.063236e+001,-1.154917e-002
2.188929e+000,2.905795e-001,2.862546e+000,2.063391e+001,-1.154917e-002
2.190857e+000,2.952276e-001,2.871843e+000,2.063701e+001,-1.154917e-002
2.192786e+000,3.014251e-001,2.876491e+000,2.063701e+001,-1.154917e-002
2.194714e+000,3.107214e-001,2.882688e+000,2.063856e+001,-9.999795e-003
2.196643e+000,3.169189e-001,2.888886e+000,2.063701e+001,-9.999795e-003
2.198571e+000,3.184683e-001,2.899731e+000,2.063856e+001,-9.999795e-003
2.200500e+000,3.184683e-001,2.909028e+000,2.063856e+001,-9.999795e-003
2.202429e+000,3.215670e-001,2.918324e+000,2.063856e+001,-9.999795e-003
2.204357e+000,3.308633e-001,2.927620e+000,2.064011e+001,-9.999795e-003
2.206286e+000,3.370608e-001,2.936917e+000,2.064165e+001,-9.999795e-003
2.208214e+000,3.417089e-001,2.947762e+000,2.064320e+001,-1.154917e-002
2.210143e+000,3.463571e-001,2.960157e+000,2.064320e+001,-1.154917e-002
2.212071e+000,3.494558e-001,2.967904e+000,2.064940e+001,-1.154917e-002
2.214000e+000,3.541040e-001,2.971003e+000,2.065250e+001,-9.999795e-003
2.215929e+000,3.541040e-001,2.978750e+000,2.065560e+001,-1.154917e-002
2.217857e+000,3.510052e-001,2.984947e+000,2.065870e+001,-1.154917e-002
2.219786e+000,3.525546e-001,2.988046e+000,2.066180e+001,-1.154917e-002
2.221714e+000,3.525546e-001,2.988046e+000,2.066800e+001,-9.999795e-003
2.223643e+000,3.618509e-001,2.986497e+000,2.066800e+001,-1.309855e-002
2.225571e+000,3.773446e-001,2.986497e+000,2.067109e+001,-1.309855e-002
2.227500e+000,3.835421e-001,2.991145e+000,2.067419e+001,-1.154917e-002
2.229429e+000,3.897396e-001,3.001990e+000,2.067264e+001,-9.999795e-003
2.231357e+000,3.928384e-001,3.011287e+000,2.067264e+001,-1.154917e-002
2.233286e+000,3.974865e-001,3.019033e+000,2.067419e+001,-1.154917e-002
2.235214e+000,3.990359e-001,3.023682e+000,2.067109e+001,-1.154917e-002
2.237143e+000,4.083322e-001,3.028330e+000,2.067109e+001,-1.154917e-002
2.239071e+000,4.176284e-001,3.031429e+000,2.067109e+001,-1.309855e-002
2.241000e+000,4.238259e-001,3.032978e+000,2.067264e+001,-1.154917e-002
2.242929e+000,4.362210e-001,3.036077e+000,2.067574e+001,-9.999795e-003
2.244857e+000,4.501654e-001,3.036077e+000,2.067729e+001,-1.309855e-002
2.246786e+000,4.672085e-001,3.036077e+000,2.067729e+001,-1.309855e-002
2.248714e+000,4.765048e-001,3.036077e+000,2.068039e+001,-9.999795e-003
2.250643e+000,4.842517e-001,3.032978e+000,2.068039e+001,-1.154917e-002
2.252571e+000,4.950973e-001,3.032978e+000,2.068039e+001,-1.154917e-002
2.254500e+000,5.043936e-001,3.031429e+000,2.067884e+001,-9.999795e-003
2.256429e+000,5.136899e-001,3.029879e+000,2.068039e+001,-8.450417e-003
2.258357e+000,5.183380e-001,3.032978e+000,2.068194e+001,-1.154917e-002
2.260286e+000,5.167886e-001,3.037626e+000,2.068194e+001,-1.154917e-002
2.262214e+000,5.229861e-001,3.043823e+000,2.068349e+001,-1.154917e-002
2.264143e+000,5.291836e-001,3.048472e+000,2.068504e+001,-9.999795e-003
2.266071e+000,5.276343e-001,3.050021e+000,2.068969e+001,-9.999795e-003
2.268000e+000,5.260849e-001,3.054669e+000,2.068969e+001,-1.154917e-002
2.269929e+000,5.260849e-001,3.056219e+000,2.069279e+001,-1.154917e-002
2.271857e+000,5.245355e-001,3.057768e+000,2.069279e+001,-9.999795e-003
2.273786e+000,5.198874e-001,3.060867e+000,2.069588e+001,-1.309855e-002
2.275714e+000,5.167886e-001,3.067064e+000,2.069588e+001,-9.999795e-003
2.277643e+000,5.167886e-001,3.070163e+000,2.069588e+001,-1.309855e-002
2.279571e+000,5.183380e-001,3.073262e+000,2.069588e+001,-1.154917e-002
2.281500e+000,5.183380e-001,3.076360e+000,2.069898e+001,-9.999795e-003
2.283429e+000,5.136899e-001,3.079459e+000,2.069898e+001,-1.154917e-002
2.285357e+000,5.059429e-001,3.084107e+000,2.070208e+001,-9.999795e-003
2.287286e+000,5.121405e-001,3.088756e+000,2.070208e+001,-1.154917e-002
2.289214e+000,5.260849e-001,3.091854e+000,2.070363e+001,-1.154917e-002
2.291143e+000,5.384799e-001,3.093404e+000,2.070518e+001,-1.154917e-002
2.293071e+000,5.477762e-001,3.093404e+000,2.070828e+001,-1.154917e-002
2.295000e+000,5.524243e-001,3.094953e+000,2.071138e+001,-9.999795e-003
2.296929e+000,5.601712e-001,3.094953e+000,2.071448e+001,-9.999795e-003
2.298857e+000,5.648193e-001,3.094953e+000,2.071448e+001,-9.999795e-003
2.300786e+000,5.632699e-001,3.096502e+000,2.072067e+001,-1.154917e-002
2.302714e+000,5.632699e-001,3.101151e+000,2.072067e+001,-9.999795e-003
2.304643e+000,5.632699e-001,3.108897e+000,2.072067e+001,-1.154917e-002
2.306571e+000,5.601712e-001,3.119743e+000,2.072377e+001,-1.154917e-002
2.308500e+000,5.632699e-001,3.129039e+000,2.072687e+001,-8.450417e-003
2.310429e+000,5.694674e-001,3.133687e+000,2.072687e+001,-1.154917e-002
2.312357e+000,5.741156e-001,3.136786e+000,2.072687e+001,-1.154917e-002
2.314286e+000,5.725662e-001,3.138336e+000,2.072842e+001,-9.999795e-003
2.316214e+000,5.725662e-001,3.138336e+000,2.072842e+001,-9.999795e-003
2.318143e+000,5.694674e-001,3.139885e+000,2.072997e+001,-1.154917e-002
2.320071e+000,5.679181e-001,3.136786e+000,2.073152e+001,-9.999795e-003
2.322000e+000,5.663687e-001,3.136786e+000,2.073307e+001,-9.999795e-003
2.323929e+000,5.648193e-001,3.138336e+000,2.073307e+001,-1.154917e-002
2.325857e+000,5.570724e-001,3.139885e+000,2.073307e+001,-1.154917e-002
2.327786e+000,5.477762e-001,3.144533e+000,2.073617e+001,-8.450417e-003
2.329714e+000,5.400293e-001,3.146082e+000,2.073617e+001,-8.450417e-003
2.331643e+000,5.415787e-001,3.149181e+000,2.073927e+001,-1.154917e-002
2.333571e+000,5.508749e-001,3.149181e+000,2.073927e+001,-1.154917e-002
2.335500e+000,5.524243e-001,3.150731e+000,2.074391e+001,-1.154917e-002
2.337429e+000,5.555230e-001,3.152280e+000,2.074236e+001,-1.154917e-002
2.339357e+000,5.539737e-001,3.155379e+000,2.074236e+001,-1.154917e-002
2.341286e+000,5.508749e-001,3.158478e+000,2.074546e+001,-9.999795e-003
2.343214e+000,5.524243e-001,3.158478e+000,2.074546e+001,-9.999795e-003
2.345143e+000,5.539737e-001,3.163126e+000,2.074701e+001,-1.309855e-002
2.347071e+000,5.679181e-001,3.164675e+000,2.075166e+001,-9.999795e-003
2.349000e+000,5.803131e-001,3.169323e+000,2.075476e+001,-1.154917e-002
2.350929e+000,5.896094e-001,3.170872e+000,2.075476e+001,-1.154917e-002
2.352857e+000,5.942575e-001,3.175521e+000,2.075631e+001,-9.999795e-003
2.354786e+000,5.942575e-001,3.178619e+000,2.075786e+001,-1.154917e-002
2.356714e+000,5.927081e-001,3.181718e+000,2.075786e+001,-1.154917e-002
2.358643e+000,5.911587e-001,3.181718e+000,2.075631e+001,-1.154917e-002
2.360571e+000,5.927081e-001,3.181718e+000,2.075786e+001,-9.999795e-003
2.362500e+000,5.942575e-001,3.184817e+000,2.075786e+001,-1.154917e-002
2.364429e+000,6.020044e-001,3.187916e+000,2.075786e+001,-1.154917e-002
2.366357e+000,6.082019e-001,3.189465e+000,2.075941e+001,-1.154917e-002
2.368286e+000,6.143994e-001,3.191015e+000,2.076096e+001,-9.999795e-003
2.370214e+000,6.221463e-001,3.191015e+000,2.076096e+001,-1.154917e-002
2.372143e+000,6.283438e-001,3.192564e+000,2.075941e+001,-1.309855e-002
2.374071e+000,6.283438e-001,3.194113e+000,2.076096e+001,-9.999795e-003
2.376000e+000,6.190475e-001,3.194113e+000,2.076561e+001,-9.999795e-003
2.377929e+000,6.113006e-001,3.197212e+000,2.076715e+001,-1.154917e-002
2.379857e+000,6.035538e-001,3.197212e+000,2.076870e+001,-1.154917e-002
2.381786e+000,5.942575e-001,3.198761e+000,2.077025e+001,-9.999795e-003
2.383714e+000,5.911587e-001,3.200311e+000,2.077025e+001,-1.154917e-002
2.385643e+000,5.911587e-001,3.200311e+000,2.077025e+001,-1.154917e-002
2.387571e+000,5.896094e-001,3.203409e+000,2.077335e+001,-1.154917e-002
2.389500e+000,5.849612e-001,3.204959e+000,2.077025e+001,-8.450417e-003
2.391429e+000,5.865106e-001,3.204959e+000,2.077490e+001,-8.450417e-003
2.393357e+000,5.849612e-001,3.203409e+000,2.077645e+001,-1.154917e-002
2.395286e+000,5.896094e-001,3.203409e+000,2.077800e+001,-9.999795e-003
2.397214e+000,5.958069e-001,3.201860e+000,2.077490e+001,-1.154917e-002
2.399143e+000,6.051031e-001,3.201860e+000,2.077645e+001,-1.309855e-002
2.401071e+000,6.082019e-001,3.204959e+000,2.077645e+001,-1.154917e-002
2.403000e+000,6.128500e-001,3.203409e+000,2.077645e+001,-9.999795e-003
2.404929e+000,6.097513e-001,3.201860e+000,2.077645e+001,-1.154917e-002
2.406857e+000,6.004550e-001,3.201860e+000,2.077645e+001,-1.154917e-002
2.408786e+000,5.911587e-001,3.198761e+000,2.077955e+001,-9.999795e-003
2.410714e+000,5.849612e-001,3.195662e+000,2.077955e+001,-1.309855e-002
2.412643e+000,5.849612e-001,3.194113e+000,2.077800e+001,-1.154917e-002
2.414571e+000,5.849612e-001,3.197212e+000,2.077800e+001,-9.999795e-003
2.416500e+000,5.880600e-001,3.200311e+000,2.077955e+001,-1.154917e-002
2.418429e+000,5.911587e-001,3.204959e+000,2.077800e+001,-1.154917e-002
2.420357e+000,5.927081e-001,3.211156e+000,2.078110e+001,-1.154917e-002
2.422286e+000,5.927081e-001,3.212706e+000,2.078110e+001,-1.154917e-002
2.424214e+000,5.942575e-001,3.218903e+000,2.078110e+001,-1.154917e-002
2.426143e+000,5.942575e-001,3.218903e+000,2.078110e+001,-1.154917e-002
2.428071e+000,5.973563e-001,3.218903e+000,2.078110e+001,-9.999795e-003
2.430000e+000,5.958069e-001,3.225101e+000,2.077955e+001,-9.999795e-003
2.431929e+000,6.004550e-001,3.226650e+000,2.078265e+001,-9.999795e-003
2.433857e+000,6.035538e-001,3.228199e+000,2.077955e+001,-1.154917e-002
2.435786e+000,6.035538e-001,3.231298e+000,2.078420e+001,-9.999795e-003
2.437714e+000,6.066525e-001,3.234397e+000,2.078575e+001,-9.999795e-003
2.439643e+000,6.097513e-001,3.234397e+000,2.078730e+001,-1.154917e-002
2.441571e+000,6.128500e-001,3.235946e+000,2.079194e+001,-1.154917e-002
2.443500e+000,6.143994e-001,3.234397e+000,2.079349e+001,-1.154917e-002
2.445429e+000,6.143994e-001,3.234397e+000,2.079504e+001,-9.999795e-003
2.447357e+000,6.143994e-001,3.234397e+000,2.079349e+001,-9.999795e-003
2.449286e+000,6.159488e-001,3.231298e+000,2.079504e+001,-9.999795e-003
2.451214e+000,6.174982e-001,3.232848e+000,2.079814e+001,-1.154917e-002
2.453143e+000,6.190475e-001,3.232848e+000,2.079659e+001,-9.999795e-003
2.455071e+000,6.205969e-001,3.231298e+000,2.079504e+001,-9.999795e-003
2.457000e+000,6.205969e-001,3.234397e+000,2.079504e+001,-1.154917e-002
2.458929e+000,6.221463e-001,3.234397e+000,2.079504e+001,-1.154917e-002
2.460857e+000,6.205969e-001,3.235946e+000,2.079504e+001,-9.999795e-003
2.462786e+000,6.221463e-001,3.235946e+000,2.079814e+001,-1.154917e-002
2.464714e+000,6.205969e-001,3.234397e+000,2.079814e+001,-1.154917e-002
2.466643e+000,6.190475e-001,3.231298e+000,2.079814e+001,-1.154917e-002
2.468571e+000,6.190475e-001,3.229749e+000,2.079969e+001,-1.154917e-002
2.470500e+000,6.159488e-001,3.226650e+000,2.080124e+001,-1.154917e-002
2.472429e+000,6.159488e-001,3.228199e+000,2.080434e+001,-1.154917e-002
2.474357e+000,6.143994e-001,3.231298e+000,2.080744e+001,-1.154917e-002
2.476286e+000,6.143994e-001,3.231298e+000,2.080744e+001,-1.154917e-002
2.478214e+000,6.143994e-001,3.240595e+000,2.080744e+001,-1.154917e-002
2.480143e+000,6.128500e-001,3.243693e+000,2.081054e+001,-1.154917e-002
2.482071e+000,6.143994e-001,3.249891e+000,2.081364e+001,-9.999795e-003
2.484000e+000,6.128500e-001,3.256088e+000,2.081983e+001,-1.154917e-002
2.485929e+000,6.143994e-001,3.263835e+000,2.082448e+001,-9.999795e-003
2.487857e+000,6.174982e-001,3.266934e+000,2.082913e+001,-9.999795e-003
2.489786e+000,6.159488e-001,3.268483e+000,2.082913e+001,-1.154917e-002
2.491714e+000,6.143994e-001,3.270033e+000,2.083068e+001,-1.154917e-002
2.493643e+000,6.128500e-001,3.270033e+000,2.083068e+001,-1.154917e-002
2.495571e+000,6.113006e-001,3.270033e+000,2.083223e+001,-1.154917e-002
2.497500e+000,6.097513e-001,3.271582e+000,2.083378e+001,-1.154917e-002
2.499429e+000,6.066525e-001,3.271582e+000,2.083533e+001,-9.999795e-003
2.501357e+000,6.066525e-001,3.273131e+000,2.083533e+001,-9.999795e-003
2.503286e+000,6.097513e-001,3.271582e+000,2.083533e+001,-1.154917e-002
2.505214e+000,6.159488e-001,3.271582e+000,2.083223e+001,-1.154917e-002
2.507143e+000,6.252450e-001,3.271582e+000,2.083223e+001,-9.999795e-003
2.509071e+000,6.329919e-001,3.273131e+000,2.083223e+001,-1.154917e-002
2.511000e+000,6.376401e-001,3.273131e+000,2.083378e+001,-9.999795e-003
2.512929e+000,6.422882e-001,3.271582e+000,2.083533e+001,-9.999795e-003
2.514857e+000,6.453869e-001,3.273131e+000,2.083533e+001,-1.154917e-002
2.516786e+000,6.484857e-001,3.276230e+000,2.083843e+001,-8.450417e-003
2.518714e+000,6.515844e-001,3.276230e+000,2.083843e+001,-9.999795e-003
2.520643e+000,6.562326e-001,3.276230e+000,2.083688e+001,-1.154917e-002
2.522571e+000,6.577820e-001,3.279329e+000,2.083843e+001,-9.999795e-003
2.524500e+000,6.624301e-001,3.280878e+000,2.083843e+001,-9.999795e-003
2.526429e+000,6.655289e-001,3.280878e+000,2.083998e+001,-9.999795e-003
2.528357e+000,6.655289e-001,3.282428e+000,2.083843e+001,-1.154917e-002
2.530286e+000,6.686276e-001,3.283977e+000,2.083843e+001,-1.154917e-002
2.532214e+000,6.717264e-001,3.288625e+000,2.083843e+001,-9.999795e-003
2.534143e+000,6.732758e-001,3.293273e+000,2.083843e+001,-1.154917e-002
2.536071e+000,6.779239e-001,3.293273e+000,2.084152e+001,-8.450417e-003
2.538000e+000,6.779239e-001,3.297921e+000,2.083998e+001,-1.154917e-002
2.539929e+000,6.794733e-001,3.302570e+000,2.084152e+001,-1.154917e-002
2.541857e+000,6.810226e-001,3.307218e+000,2.083843e+001,-9.999795e-003
2.543786e+000,6.841214e-001,3.316514e+000,2.083998e+001,-9.999795e-003
2.545714e+000,6.856708e-001,3.324261e+000,2.084152e+001,-1.154917e-002
2.547643e+000,6.872202e-001,3.333557e+000,2.084307e+001,-1.154917e-002
2.549571e+000,6.841214e-001,3.335107e+000,2.084462e+001,-1.154917e-002
2.551500e+000,6.856708e-001,3.338205e+000,2.084617e+001,-1.154917e-002
2.553429e+000,6.856708e-001,3.339755e+000,2.084462e+001,-1.154917e-002
2.555357e+000,6.887695e-001,3.341304e+000,2.084927e+001,-9.999795e-003
2.557286e+000,6.934177e-001,3.342854e+000,2.085082e+001,-9.999795e-003
2.559214e+000,6.996152e-001,3.347502e+000,2.085082e+001,-1.154917e-002
2.561143e+000,7.027139e-001,3.353699e+000,2.084927e+001,-1.154917e-002
2.563071e+000,7.027139e-001,3.361446e+000,2.085392e+001,-1.154917e-002
2.565000e+000,6.996152e-001,3.372292e+000,2.085237e+001,-1.309855e-002
2.566929e+000,6.980658e-001,3.384687e+000,2.085392e+001,-9.999795e-003
2.568857e+000,6.965164e-001,3.397082e+000,2.085547e+001,-1.154917e-002
2.570786e+000,6.996152e-001,3.403279e+000,2.085547e+001,-1.154917e-002
2.572714e+000,7.027139e-001,3.411026e+000,2.085702e+001,-1.154917e-002
2.574643e+000,7.011645e-001,3.417224e+000,2.085547e+001,-1.309855e-002
2.576571e+000,7.073621e-001,3.423421e+000,2.086012e+001,-1.154917e-002
2.578500e+000,7.089114e-001,3.429619e+000,2.085702e+001,-1.154917e-002
2.580429e+000,7.135596e-001,3.435816e+000,2.086012e+001,-1.154917e-002
2.582357e+000,7.166584e-001,3.440464e+000,2.086012e+001,-1.154917e-002
2.584286e+000,7.213064e-001,3.442014e+000,2.086167e+001,-1.154917e-002
2.586214e+000,7.244052e-001,3.445112e+000,2.086322e+001,-9.999795e-003
2.588143e+000,7.275040e-001,3.445112e+000,2.086012e+001,-1.154917e-002
2.590071e+000,7.337015e-001,3.446662e+000,2.086477e+001,-8.450417e-003
2.592000e+000,7.352509e-001,3.448211e+000,2.086322e+001,-9.999795e-003
2.593929e+000,7.368003e-001,3.449760e+000,2.086322e+001,-8.450417e-003
2.595857e+000,7.383496e-001,3.451310e+000,2.086631e+001,-1.154917e-002
2.597786e+000,7.460965e-001,3.452859e+000,2.086631e+001,-9.999795e-003
2.599714e+000,7.569422e-001,3.452859e+000,2.086631e+001,-9.999795e-003
2.601643e+000,7.600409e-001,3.454409e+000,2.086477e+001,-1.154917e-002
2.603571e+000,7.631397e-001,3.455958e+000,2.086631e+001,-1.154917e-002
2.605500e+000,7.600409e-001,3.459057e+000,2.086631e+001,-9.999795e-003
2.607429e+000,7.569422e-001,3.462156e+000,2.086941e+001,-1.154917e-002
2.609357e+000,7.522940e-001,3.462156e+000,2.087096e+001,-9.999795e-003
2.611286e+000,7.476459e-001,3.466804e+000,2.086941e+001,-9.999795e-003
2.613214e+000,7.522940e-001,3.466804e+000,2.087251e+001,-9.999795e-003
2.615143e+000,7.569422e-001,3.468353e+000,2.087406e+001,-1.154917e-002
2.617071e+000,7.631397e-001,3.468353e+000,2.087561e+001,-9.999795e-003
2.619000e+000,7.662384e-001,3.466804e+000,2.087871e+001,-1.154917e-002
2.620929e+000,7.708865e-001,3.466804e+000,2.087716e+001,-1.154917e-002
2.622857e+000,7.708865e-001,3.466804e+000,2.088026e+001,-1.154917e-002
2.624786e+000,7.677878e-001,3.468353e+000,2.088026e+001,-1.154917e-002
2.626714e+000,7.646890e-001,3.469903e+000,2.088026e+001,-1.154917e-002
2.628643e+000,7.584915e-001,3.469903e+000,2.087871e+001,-1.309855e-002
2.630571e+000,7.646890e-001,3.468353e+000,2.088026e+001,-1.154917e-002
2.632500e+000,7.677878e-001,3.463705e+000,2.088026e+001,-1.154917e-002
2.634429e+000,7.755347e-001,3.463705e+000,2.088491e+001,-1.154917e-002
2.636357e+000,7.801828e-001,3.465254e+000,2.088491e+001,-1.154917e-002
2.638286e+000,7.832816e-001,3.465254e+000,2.088181e+001,-1.154917e-002
2.640214e+000,7.848309e-001,3.468353e+000,2.088181e+001,-1.309855e-002
2.642143e+000,7.879297e-001,3.468353e+000,2.088336e+001,-1.154917e-002
2.644071e+000,7.848309e-001,3.471452e+000,2.088646e+001,-9.999795e-003
2.646000e+000,7.801828e-001,3.474550e+000,2.088646e+001,-9.999795e-003
2.647929e+000,7.832816e-001,3.476100e+000,2.088491e+001,-1.154917e-002
2.649857e+000,7.925779e-001,3.477649e+000,2.088646e+001,-1.154917e-002
2.651786e+000,8.049728e-001,3.477649e+000,2.088646e+001,-9.999795e-003
2.653714e+000,8.111703e-001,3.477649e+000,2.088491e+001,-1.154917e-002
2.655643e+000,8.080716e-001,3.476100e+000,2.088646e+001,-1.154917e-002
2.657571e+000,7.987754e-001,3.479199e+000,2.088801e+001,-1.154917e-002
2.659500e+000,7.941272e-001,3.479199e+000,2.088646e+001,-8.450417e-003
2.661429e+000,7.941272e-001,3.480748e+000,2.088646e+001,-9.999795e-003
2.663357e+000,8.003247e-001,3.480748e+000,2.088801e+001,-1.154917e-002
2.665286e+000,8.080716e-001,3.480748e+000,2.088801e+001,-1.154917e-002
2.667214e+000,8.189173e-001,3.480748e+000,2.088955e+001,-9.999795e-003
2.669143e+000,8.313123e-001,3.479199e+000,2.088955e+001,-9.999795e-003
2.671071e+000,8.406085e-001,3.479199e+000,2.089265e+001,-1.154917e-002
2.673000e+000,8.468060e-001,3.479199e+000,2.089420e+001,-1.154917e-002
2.674929e+000,8.499048e-001,3.477649e+000,2.089575e+001,-9.999795e-003
2.676857e+000,8.545529e-001,3.479199e+000,2.089730e+001,-1.154917e-002
2.678786e+000,8.530036e-001,3.479199e+000,2.089885e+001,-1.154917e-002
2.680714e+000,8.561023e-001,3.480748e+000,2.089885e+001,-1.154917e-002
2.682643e+000,8.545529e-001,3.482297e+000,2.089730e+001,-1.154917e-002
2.684571e+000,8.530036e-001,3.483847e+000,2.089730e+001,-1.154917e-002
2.686500e+000,8.437073e-001,3.486946e+000,2.089730e+001,-9.999795e-003
2.688429e+000,8.421579e-001,3.490044e+000,2.089575e+001,-9.999795e-003
2.690357e+000,8.390592e-001,3.488495e+000,2.089420e+001,-9.999795e-003
2.692286e+000,8.421579e-001,3.490044e+000,2.089420e+001,-1.154917e-002
2.694214e+000,8.421579e-001,3.493143e+000,2.089420e+001,-9.999795e-003
2.696143e+000,8.452567e-001,3.496242e+000,2.089575e+001,-1.154917e-002
2.698071e+000,8.468060e-001,3.497791e+000,2.089730e+001,-9.999795e-003
2.700000e+000,8.483554e-001,3.499341e+000,2.089730e+001,-9.999795e-003
2.701929e+000,8.530036e-001,3.500890e+000,2.089885e+001,-1.154917e-002
2.703857e+000,8.561023e-001,3.499341e+000,2.090040e+001,-1.154917e-002
2.705786e+000,8.607504e-001,3.497791e+000,2.090195e+001,-9.999795e-003
2.707714e+000,8.653986e-001,3.499341e+000,2.090350e+001,-9.999795e-003
2.709643e+000,8.669479e-001,3.502439e+000,2.090505e+001,-9.999795e-003
2.711571e+000,8.715961e-001,3.502439e+000,2.090660e+001,-1.154917e-002
2.713500e+000,8.731455e-001,3.503989e+000,2.090970e+001,-9.999795e-003
2.715429e+000,8.746948e-001,3.505538e+000,2.090815e+001,-9.999795e-003
2.717357e+000,8.793430e-001,3.507087e+000,2.090660e+001,-1.154917e-002
2.719286e+000,8.855405e-001,3.510186e+000,2.090660e+001,-9.999795e-003
2.721214e+000,8.917380e-001,3.510186e+000,2.090660e+001,-1.154917e-002
2.723143e+000,8.917380e-001,3.513285e+000,2.090660e+001,-1.309855e-002
2.725071e+000,8.948368e-001,3.513285e+000,2.090815e+001,-9.999795e-003
2.727000e+000,8.932874e-001,3.510186e+000,2.091280e+001,-1.154917e-002
2.728929e+000,8.979355e-001,3.510186e+000,2.091280e+001,-1.154917e-002
2.730857e+000,8.963861e-001,3.510186e+000,2.091590e+001,-1.154917e-002
2.732786e+000,8.994849e-001,3.513285e+000,2.091744e+001,-1.154917e-002
2.734714e+000,8.994849e-001,3.513285e+000,2.091899e+001,-9.999795e-003
2.736643e+000,8.932874e-001,3.514834e+000,2.091590e+001,-1.154917e-002
2.738571e+000,8.917380e-001,3.519483e+000,2.091590e+001,-1.154917e-002
2.740500e+000,8.839911e-001,3.519483e+000,2.091590e+001,-9.999795e-003
2.742429e+000,8.808923e-001,3.521032e+000,2.091744e+001,-9.999795e-003
2.744357e+000,8.777936e-001,3.525680e+000,2.091899e+001,-1.154917e-002
2.746286e+000,8.731455e-001,3.528779e+000,2.092209e+001,-9.999795e-003
2.748214e+000,8.731455e-001,3.528779e+000,2.092209e+001,-1.154917e-002
2.750143e+000,8.762442e-001,3.531878e+000,2.092209e+001,-1.309855e-002
2.752071e+000,8.762442e-001,3.533427e+000,2.092054e+001,-9.999795e-003
2.754000e+000,8.777936e-001,3.534976e+000,2.092209e+001,-8.450417e-003
2.755929e+000,8.808923e-001,3.536526e+000,2.092209e+001,-9.999795e-003
2.757857e+000,8.824418e-001,3.534976e+000,2.092209e+001,-1.154917e-002
2.759786e+000,8.808923e-001,3.538075e+000,2.092519e+001,-1.154917e-002
2.761714e+000,8.839911e-001,3.536526e+000,2.092984e+001,-9.999795e-003
2.763643e+000,8.870898e-001,3.541174e+000,2.092984e+001,-1.154917e-002
2.765571e+000,8.979355e-001,3.541174e+000,2.093449e+001,-9.999795e-003
2.767500e+000,9.087812e-001,3.541174e+000,2.093914e+001,-1.154917e-002
2.769429e+000,9.165280e-001,3.544273e+000,2.094069e+001,-1.154917e-002
2.771357e+000,9.211762e-001,3.545822e+000,2.094378e+001,-9.999795e-003
2.773286e+000,9.273737e-001,3.548921e+000,2.094688e+001,-1.154917e-002
2.775214e+000,9.289231e-001,3.552019e+000,2.095308e+001,-9.999795e-003
2.777143e+000,9.320218e-001,3.553569e+000,2.095618e+001,-1.154917e-002
2.779071e+000,9.320218e-001,3.555118e+000,2.096083e+001,-1.154917e-002
2.781000e+000,9.320218e-001,3.561316e+000,2.096857e+001,-9.999795e-003
2.782929e+000,9.335712e-001,3.569063e+000,2.097167e+001,-1.154917e-002
2.784857e+000,9.320218e-001,3.572161e+000,2.097632e+001,-1.154917e-002
2.786786e+000,9.320218e-001,3.578359e+000,2.098097e+001,-9.999795e-003
2.788714e+000,9.289231e-001,3.584556e+000,2.098407e+001,-1.154917e-002
2.790643e+000,9.289231e-001,3.589205e+000,2.098717e+001,-1.154917e-002
2.792571e+000,9.273737e-001,3.592303e+000,2.099181e+001,-9.999795e-003
2.794500e+000,9.289231e-001,3.595402e+000,2.099646e+001,-1.154917e-002
2.796429e+000,9.289231e-001,3.596951e+000,2.099956e+001,-1.154917e-002
2.798357e+000,9.273737e-001,3.598501e+000,2.100421e+001,-1.154917e-002
2.800286e+000,9.258243e-001,3.595402e+000,2.100886e+001,-9.999795e-003
2.802214e+000,9.258243e-001,3.593853e+000,2.101041e+001,-1.154917e-002
2.804143e+000,9.242749e-001,3.592303e+000,2.101041e+001,-1.154917e-002
2.806071e+000,9.227256e-001,3.593853e+000,2.101351e+001,-1.154917e-002
2.808000e+000,9.196268e-001,3.593853e+000,2.101661e+001,-9.999795e-003
2.809929e+000,9.227256e-001,3.595402e+000,2.101815e+001,-1.154917e-002
2.811857e+000,9.196268e-001,3.598501e+000,2.101970e+001,-9.999795e-003
2.813786e+000,9.165280e-001,3.600050e+000,2.102435e+001,-1.154917e-002
2.815714e+000,9.180774e-001,3.600050e+000,2.102435e+001,-1.154917e-002
2.817643e+000,9.196268e-001,3.600050e+000,2.102745e+001,-9.999795e-003
2.819571e+000,9.196268e-001,3.598501e+000,2.103365e+001,-9.999795e-003
2.821500e+000,9.165280e-001,3.600050e+000,2.103210e+001,-1.154917e-002
2.823429e+000,9.149787e-001,3.598501e+000,2.103365e+001,-1.309855e-002
2.825357e+000,9.149787e-001,3.598501e+000,2.103520e+001,-1.154917e-002
2.827286e+000,9.118799e-001,3.601599e+000,2.103675e+001,-1.154917e-002
2.829214e+000,9.072318e-001,3.603149e+000,2.103984e+001,-1.154917e-002
2.831143e+000,8.963861e-001,3.607797e+000,2.103830e+001,-1.154917e-002
2.833071e+000,8.793430e-001,3.607797e+000,2.103984e+001,-1.154917e-002
2.835000e+000,8.684973e-001,3.609346e+000,2.104140e+001,-9.999795e-003
2.836929e+000,8.576517e-001,3.610896e+000,2.104294e+001,-1.154917e-002
2.838857e+000,8.530036e-001,3.609346e+000,2.104294e+001,-1.154917e-002
2.840786e+000,8.499048e-001,3.607797e+000,2.104294e+001,-9.999795e-003
2.842714e+000,8.499048e-001,3.607797e+000,2.103984e+001,-8.450417e-003
2.844643e+000,8.514542e-001,3.607797e+000,2.103675e+001,-1.154917e-002
2.846571e+000,8.530036e-001,3.606248e+000,2.103520e+001,-8.450417e-003
2.848500e+000,8.561023e-001,3.604698e+000,2.103210e+001,-8.450417e-003
2.850429e+000,8.592011e-001,3.603149e+000,2.103055e+001,-1.154917e-002
2.852357e+000,8.514542e-001,3.600050e+000,2.102435e+001,-1.154917e-002
2.854286e+000,8.282135e-001,3.601599e+000,2.102125e+001,-1.154917e-002
2.856214e+000,8.003247e-001,3.600050e+000,2.101196e+001,-1.154917e-002
2.858143e+000,7.693372e-001,3.600050e+000,2.099956e+001,-9.999795e-003
2.860071e+000,7.398990e-001,3.598501e+000,2.099181e+001,-1.154917e-002
2.862000e+000,7.151089e-001,3.598501e+000,2.097787e+001,-9.999795e-003
2.863929e+000,7.011645e-001,3.598501e+000,2.096702e+001,-1.154917e-002
2.865857e+000,6.965164e-001,3.596951e+000,2.095773e+001,-1.154917e-002
2.867786e+000,6.918683e-001,3.595402e+000,2.094688e+001,-9.999795e-003
2.869714e+000,6.903189e-001,3.592303e+000,2.093914e+001,-9.999795e-003
2.871643e+000,6.887695e-001,3.592303e+000,2.092829e+001,-1.154917e-002
2.873571e+000,6.918683e-001,3.587655e+000,2.092209e+001,-1.309855e-002
2.875500e+000,6.949670e-001,3.586106e+000,2.091125e+001,-1.154917e-002
2.877429e+000,6.965164e-001,3.586106e+000,2.090660e+001,-1.154917e-002
2.879357e+000,6.903189e-001,3.586106e+000,2.090350e+001,-9.999795e-003
2.881286e+000,6.794733e-001,3.584556e+000,2.090350e+001,-1.154917e-002
2.883214e+000,6.670783e-001,3.584556e+000,2.089885e+001,-1.154917e-002
2.885143e+000,6.577820e-001,3.581458e+000,2.089575e+001,-9.999795e-003
2.887071e+000,6.484857e-001,3.581458e+000,2.089885e+001,-9.999795e-003
2.889000e+000,6.391894e-001,3.581458e+000,2.089420e+001,-8.450417e-003
2.890929e+000,6.314425e-001,3.581458e+000,2.089730e+001,-9.999795e-003
2.892857e+000,6.236957e-001,3.584556e+000,2.089575e+001,-1.154917e-002
2.894786e+000,6.190475e-001,3.584556e+000,2.089885e+001,-1.154917e-002
2.896714e+000,6.159488e-001,3.583007e+000,2.089885e+001,-9.999795e-003
2.898643e+000,6.159488e-001,3.581458e+000,2.090040e+001,-1.309855e-002
2.900571e+000,6.143994e-001,3.578359e+000,2.090195e+001,-1.154917e-002
2.902500e+000,6.128500e-001,3.578359e+000,2.090505e+001,-1.154917e-002
2.904429e+000,6.143994e-001,3.578359e+000,2.090660e+001,-1.154917e-002
2.906357e+000,6.128500e-001,3.576809e+000,2.091125e+001,-1.154917e-002
2.908286e+000,6.128500e-001,3.576809e+000,2.091125e+001,-9.999795e-003
2.910214e+000,6.143994e-001,3.576809e+000,2.091590e+001,-9.999795e-003
2.912143e+000,6.143994e-001,3.579908e+000,2.091899e+001,-1.154917e-002
2.914071e+000,6.159488e-001,3.578359e+000,2.092054e+001,-1.154917e-002
2.916000e+000,6.143994e-001,3.579908e+000,2.092519e+001,-1.154917e-002
2.917929e+000,6.159488e-001,3.581458e+000,2.092519e+001,-9.999795e-003
2.919857e+000,6.190475e-001,3.581458e+000,2.092984e+001,-9.999795e-003
2.921786e+000,6.174982e-001,3.584556e+000,2.093449e+001,-1.154917e-002
2.923714e+000,6.205969e-001,3.584556e+000,2.093604e+001,-1.154917e-002
2.925643e+000,6.205969e-001,3.584556e+000,2.093759e+001,-1.154917e-002
2.927571e+000,6.205969e-001,3.586106e+000,2.094223e+001,-1.154917e-002
2.929500e+000,6.190475e-001,3.586106e+000,2.094069e+001,-9.999795e-003
2.931429e+000,6.205969e-001,3.584556e+000,2.094378e+001,-9.999795e-003
2.933357e+000,6.221463e-001,3.586106e+000,2.094378e+001,-1.154917e-002
2.935286e+000,6.236957e-001,3.587655e+000,2.094688e+001,-9.999795e-003
2.937214e+000,6.236957e-001,3.589205e+000,2.094688e+001,-9.999795e-003
2.939143e+000,6.252450e-001,3.587655e+000,2.094688e+001,-1.309855e-002
2.941071e+000,6.267944e-001,3.589205e+000,2.094998e+001,-9.999795e-003
2.943000e+000,6.283438e-001,3.590754e+000,2.094998e+001,-9.999795e-003
2.944929e+000,6.298932e-001,3.590754e+000,2.095308e+001,-9.999795e-003
2.946857e+000,6.298932e-001,3.592303e+000,2.095308e+001,-9.999795e-003
2.948786e+000,6.298932e-001,3.592303e+000,2.095618e+001,-1.154917e-002
2.950714e+000,6.314425e-001,3.592303e+000,2.095618e+001,-1.154917e-002
2.952643e+000,6.298932e-001,3.593853e+000,2.095463e+001,-1.154917e-002
2.954571e+000,6.329919e-001,3.593853e+000,2.095463e+001,-9.999795e-003
2.956500e+000,6.345413e-001,3.593853e+000,2.095618e+001,-9.999795e-003
2.958429e+000,6.407388e-001,3.593853e+000,2.095773e+001,-1.154917e-002
2.960357e+000,6.469364e-001,3.592303e+000,2.095463e+001,-9.999795e-003
2.962286e+000,6.515844e-001,3.595402e+000,2.095463e+001,-9.999795e-003
2.964214e+000,6.531339e-001,3.595402e+000,2.095618e+001,-9.999795e-003
2.966143e+000,6.531339e-001,3.595402e+000,2.095463e+001,-1.154917e-002
2.968071e+000,6.546832e-001,3.596951e+000,2.095618e+001,-1.154917e-002
2.970000e+000,6.562326e-001,3.598501e+000,2.095618e+001,-1.154917e-002
2.971929e+000,6.593314e-001,3.601599e+000,2.095928e+001,-1.154917e-002
2.973857e+000,6.593314e-001,3.604698e+000,2.095618e+001,-1.154917e-002
2.975786e+000,6.624301e-001,3.606248e+000,2.095928e+001,-9.999795e-003
2.977714e+000,6.717264e-001,3.609346e+000,2.096238e+001,-9.999795e-003
2.979643e+000,6.856708e-001,3.609346e+000,2.096548e+001,-1.309855e-002
2.981571e+000,6.965164e-001,3.612445e+000,2.096857e+001,-9.999795e-003
2.983500e+000,7.011645e-001,3.613995e+000,2.096857e+001,-9.999795e-003
2.985429e+000,7.089114e-001,3.613995e+000,2.097167e+001,-9.999795e-003
2.987357e+000,7.182077e-001,3.617093e+000,2.097477e+001,-1.154917e-002
2.989286e+000,7.275040e-001,3.617093e+000,2.097477e+001,-1.154917e-002
2.991214e+000,7.321521e-001,3.620192e+000,2.097787e+001,-9.999795e-003
2.993143e+000,7.337015e-001,3.620192e+000,2.097942e+001,-1.154917e-002
2.995071e+000,7.352509e-001,3.621742e+000,2.098097e+001,-1.154917e-002
2.997000e+000,7.368003e-001,3.621742e+000,2.098097e+001,-1.154917e-002
2.998929e+000,7.383496e-001,3.624840e+000,2.098407e+001,-9.999795e-003
3.000857e+000,7.383496e-001,3.624840e+000,2.098717e+001,-1.309855e-002
3.002786e+000,7.352509e-001,3.624840e+000,2.098872e+001,-9.999795e-003
3.004714e+000,7.352509e-001,3.626390e+000,2.099491e+001,-9.999795e-003
3.006643e+000,7.352509e-001,3.624840e+000,2.099956e+001,-1.154917e-002
3.008571e+000,7.368003e-001,3.621742e+000,2.100576e+001,-9.999795e-003
3.010500e+000,7.398990e-001,3.623291e+000,2.101196e+001,-9.999795e-003
3.012429e+000,7.460965e-001,3.624840e+000,2.101661e+001,-1.154917e-002
3.014357e+000,7.522940e-001,3.626390e+000,2.101815e+001,-1.154917e-002
3.016286e+000,7.584915e-001,3.631038e+000,2.102435e+001,-1.154917e-002
3.018214e+000,7.646890e-001,3.631038e+000,2.103055e+001,-9.999795e-003
3.020143e+000,7.708865e-001,3.629488e+000,2.103520e+001,-1.154917e-002
3.022071e+000,7.770841e-001,3.626390e+000,2.103675e+001,-8.450417e-003
3.024000e+000,7.817322e-001,3.627939e+000,2.104294e+001,-1.154917e-002
3.025929e+000,7.863804e-001,3.629488e+000,2.104604e+001,-1.154917e-002
3.027857e+000,7.941272e-001,3.632587e+000,2.104914e+001,-1.154917e-002
3.029786e+000,8.003247e-001,3.635686e+000,2.105069e+001,-1.309855e-002
3.031714e+000,8.127198e-001,3.643433e+000,2.105224e+001,-9.999795e-003
3.033643e+000,8.189173e-001,3.648081e+000,2.105224e+001,-1.154917e-002
3.035571e+000,8.266641e-001,3.649630e+000,2.105379e+001,-1.154917e-002
3.037500e+000,8.313123e-001,3.652729e+000,2.105224e+001,-1.154917e-002
3.039429e+000,8.406085e-001,3.651180e+000,2.105534e+001,-9.999795e-003
3.041357e+000,8.576517e-001,3.652729e+000,2.105534e+001,-1.154917e-002
3.043286e+000,8.855405e-001,3.652729e+000,2.105844e+001,-1.154917e-002
3.045214e+000,9.087812e-001,3.649630e+000,2.105844e+001,-1.154917e-002
3.047143e+000,9.180774e-001,3.649630e+000,2.105689e+001,-1.154917e-002
3.049071e+000,9.242749e-001,3.649630e+000,2.105844e+001,-1.154917e-002
3.051000e+000,9.196268e-001,3.649630e+000,2.105999e+001,-1.154917e-002
3.052929e+000,9.134293e-001,3.652729e+000,2.106309e+001,-9.999795e-003
3.054857e+000,9.056824e-001,3.652729e+000,2.106309e+001,-1.154917e-002
3.056786e+000,9.056824e-001,3.652729e+000,2.106309e+001,-9.999795e-003
3.058714e+000,9.056824e-001,3.651180e+000,2.106154e+001,-1.154917e-002
3.060643e+000,9.103305e-001,3.648081e+000,2.105844e+001,-1.309855e-002
3.062571e+000,9.149787e-001,3.648081e+000,2.105844e+001,-9.999795e-003
3.064500e+000,9.227256e-001,3.648081e+000,2.105844e+001,-1.309855e-002
3.066429e+000,9.258243e-001,3.649630e+000,2.105534e+001,-1.154917e-002
3.068357e+000,9.304724e-001,3.652729e+000,2.105224e+001,-1.154917e-002
3.070286e+000,9.320218e-001,3.652729e+000,2.105224e+001,-1.154917e-002
3.072214e+000,9.366699e-001,3.655828e+000,2.105069e+001,-9.999795e-003
3.074143e+000,9.382193e-001,3.657377e+000,2.104914e+001,-1.309855e-002
3.076071e+000,9.444168e-001,3.662025e+000,2.105224e+001,-8.450417e-003
3.078000e+000,9.475156e-001,3.666673e+000,2.104914e+001,-1.154917e-002
3.079929e+000,9.382193e-001,3.669772e+000,2.104914e+001,-9.999795e-003
3.081857e+000,9.258243e-001,3.671322e+000,2.104914e+001,-9.999795e-003
3.083786e+000,9.134293e-001,3.672871e+000,2.104759e+001,-9.999795e-003
3.085714e+000,9.072318e-001,3.671322e+000,2.104759e+001,-1.154917e-002
3.087643e+000,9.118799e-001,3.669772e+000,2.104449e+001,-1.154917e-002
3.089571e+000,9.118799e-001,3.668223e+000,2.104449e+001,-9.999795e-003
3.091500e+000,9.072318e-001,3.668223e+000,2.104294e+001,-9.999795e-003
3.093429e+000,9.056824e-001,3.669772e+000,2.104604e+001,-9.999795e-003
3.095357e+000,9.041330e-001,3.672871e+000,2.104604e+001,-1.154917e-002
3.097286e+000,9.118799e-001,3.672871e+000,2.104759e+001,-1.154917e-002
3.099214e+000,9.211762e-001,3.675970e+000,2.105224e+001,-1.154917e-002
3.101143e+000,9.304724e-001,3.680618e+000,2.104914e+001,-1.309855e-002
3.103071e+000,9.351206e-001,3.682167e+000,2.105224e+001,-9.999795e-003
3.105000e+000,9.335712e-001,3.686815e+000,2.105379e+001,-1.154917e-002
3.106929e+000,9.335712e-001,3.688365e+000,2.105379e+001,-1.154917e-002
3.108857e+000,9.273737e-001,3.686815e+000,2.105844e+001,-8.450417e-003
3.110786e+000,9.180774e-001,3.683717e+000,2.105999e+001,-9.999795e-003
3.112714e+000,9.056824e-001,3.683717e+000,2.105999e+001,-9.999795e-003
3.114643e+000,8.948368e-001,3.682167e+000,2.106154e+001,-1.154917e-002
3.116571e+000,8.855405e-001,3.685266e+000,2.106463e+001,-9.999795e-003
3.118500e+000,8.762442e-001,3.686815e+000,2.106773e+001,-9.999795e-003
3.120429e+000,8.731455e-001,3.686815e+000,2.106928e+001,-9.999795e-003
3.122357e+000,8.669479e-001,3.686815e+000,2.106928e+001,-1.154917e-002
3.124286e+000,8.653986e-001,3.688365e+000,2.107083e+001,-9.999795e-003
3.126214e+000,8.653986e-001,3.689914e+000,2.107238e+001,-9.999795e-003
3.128143e+000,8.669479e-001,3.693013e+000,2.107393e+001,-1.154917e-002
3.130071e+000,8.684973e-001,3.693013e+000,2.107703e+001,-1.154917e-002
3.132000e+000,8.715961e-001,3.697661e+000,2.108013e+001,-9.999795e-003
3.133929e+000,8.731455e-001,3.699210e+000,2.108168e+001,-1.154917e-002
3.135857e+000,8.808923e-001,3.699210e+000,2.108013e+001,-1.154917e-002
3.137786e+000,8.839911e-001,3.700760e+000,2.108323e+001,-9.999795e-003
3.139714e+000,8.886393e-001,3.700760e+000,2.108633e+001,-9.999795e-003
3.141643e+000,8.917380e-001,3.702309e+000,2.108633e+001,-1.154917e-002
3.143571e+000,8.901886e-001,3.703858e+000,2.108943e+001,-9.999795e-003
3.145500e+000,8.932874e-001,3.702309e+000,2.109252e+001,-1.154917e-002
3.147429e+000,8.932874e-001,3.703858e+000,2.109407e+001,-9.999795e-003
3.149357e+000,8.917380e-001,3.702309e+000,2.109717e+001,-9.999795e-003
3.151286e+000,8.932874e-001,3.702309e+000,2.109562e+001,-9.999795e-003
3.153214e+000,8.932874e-001,3.699210e+000,2.109717e+001,-1.309855e-002
3.155143e+000,8.917380e-001,3.697661e+000,2.109872e+001,-1.309855e-002
3.157071e+000,8.917380e-001,3.699210e+000,2.110492e+001,-1.154917e-002
3.159000e+000,8.917380e-001,3.697661e+000,2.110492e+001,-1.154917e-002
3.160929e+000,8.948368e-001,3.699210e+000,2.110492e+001,-1.154917e-002
3.162857e+000,8.979355e-001,3.696112e+000,2.111112e+001,-9.999795e-003
