,Time,Position X,Position Y,Position Z,Velocity X,Velocity Y,Velocity Z,Filtered Acc X,Filtered Acc Y,Filtered Axx Z
0,191.869,0.0,0.0,0.0,0.0,0.0,0.0,0.001791141745532314,-0.0007404379772205411,-0.00010392160429451091
1,191.876,1.9023808950149813e-06,-7.733337743990627e-07,-1.1386449823485092e-07,0.0005435373985753205,-0.0002209525069710029,-3.253271378136273e-05,0.014044683902659246,-0.005696957841530584,-0.0008439108441341277
2,191.882,1.1024647286267237e-05,-4.612729428188163e-06,-8.247567335482025e-07,0.0024972180651753164,-0.001058846044291982,-0.00020443136465641212,0.05236197778778964,-0.02278349631698931,-0.0049990171987429975
3,191.889,4.942781774266561e-05,-2.2402471523089708e-05,-5.847422941569567e-06,0.008475116350930663,-0.004023937411390542,-0.0012306161233486665,0.12180258796973424,-0.06360369625412872,-0.024898618114073772
4,191.896,0.00014493170415310353,-7.416344250668256e-05,-2.880169606122673e-05,0.01881170833785718,-0.010764911441114036,-0.00532774762514675,0.1793514244886078,-0.1327928897285914,-0.09447027957450027
5,191.903,0.00031070939679217447,-0.00018962748113275012,-0.00010926943484524594,0.028553346701843535,-0.022224813880595978,-0.017663034884556592,0.10446876353189412,-0.20108849074788568,-0.26491521785839417
6,191.909,0.00047044309762459165,-0.00035821599147405005,-0.00028829911679086246,0.024691220242293522,-0.03397135623316854,-0.04201352576398,-0.23574452911102894,-0.19818283203043724,-0.5627711269322153
7,191.916,0.000515641574689931,-0.000628428402624668,-0.0007636368613753472,-0.011777369652205803,-0.04323218980980997,-0.09379725840291855,-0.8267586817414689,-0.07162922922055984,-0.9459349227935627
8,191.923,0.00015725847756742383,-0.0009216919800130062,-0.0016920065345072885,-0.09061780095415166,-0.04055740372965534,-0.17145121963458942,-1.47023749073594,0.14955845013997157,-1.3164937420589433
9,191.93,-0.0008887938253116259,-0.0011416800221772615,-0.0032394017527294272,-0.20825428558250614,-0.022296322602944115,-0.2706616998571343,-1.957071955354808,0.38247356390001086,-1.573978691660566
10,191.936,-0.002505192021893072,-0.0011920079639304618,-0.0051480963245234355,-0.3305451132779555,0.005520342018544615,-0.36556982407417765,-2.1996593679630343,0.5630298996166735,-1.6519997419207213
11,191.943,-0.005346664311504175,-0.001005216646438285,-0.008089092589500664,-0.48130411232463677,0.04784860583632489,-0.47471482306157314,-2.1926662200402527,0.6701934398738043,-1.527912401874342
12,191.95,-0.009213943145841445,-0.0005045676918233309,-0.011742270897944067,-0.6236326974897084,0.09519395262556915,-0.5690504079257482,-1.954041376060289,0.7092013524180928,-1.2205311794706981
13,191.957,-0.01399780231110653,0.00033052214238597755,-0.01596602393525626,-0.7431842068707675,0.14340314286263417,-0.6377361741625872,-1.529061835418616,0.6953613018458308,-0.7806113757426334
14,191.963,-0.018679920960961056,0.0013092750106067478,-0.01988581811390103,-0.8175220097473483,0.18284781321094357,-0.6688618853856203,-0.9977202589281805,0.645384360478813,-0.2773683700771901
15,191.97,-0.0245769074373324,0.002735524751079929,-0.024575315254592542,-0.8673312692146887,0.22465211263824564,-0.6709944405252831,-0.45346001064996294,0.5725734080404266,0.21523691147770457
16,191.977,-0.030699732793741902,0.004435209008328553,-0.029170543200681458,-0.8820474040439186,0.2609719608610141,-0.6419278297848973,0.02470911700070291,0.4855962515489485,0.6316114950442584
17,191.984,-0.03682468915523593,0.006367146009154157,-0.03347700402943439,-0.867940127810267,0.2910100393744784,-0.5884895498579189,0.3863028343250812,0.3895556246470969,0.9252993745315667
18,191.99,-0.04194444605563841,0.008172996942757553,-0.0368314409178369,-0.8386455056571616,0.3109402718266305,-0.5296560796095404,0.6094372044276797,0.28788374734882255,1.074482074735895
19,191.997,-0.0476580621021099,0.01040631118410019,-0.040280007842728095,-0.7938162219049557,0.32714951141366694,-0.45564875607295585,0.6966527229517392,0.18436837856354685,1.081702716387088
20,192.004,-0.05305043325555533,0.012728692948999979,-0.04322312322967637,-0.7468612505131794,0.33638813570277865,-0.3852413544865081,0.671368580141668,0.0847966206721795,0.9695992525154519
21,192.011,-0.05812908443477005,0.01509333964982634,-0.04571030531955157,-0.7041819435471338,0.3392252073899846,-0.3253820997630413,0.5720823133414024,-0.002139249334395209,0.7743851057202942
22,192.017,-0.06226464990331027,0.01712284734461696,-0.04754672050841358,-0.6743398792995549,0.33727735754019617,-0.2867562965242728,0.4422655780580675,-0.06406921974146351,0.5385268210085749
23,192.024,-0.0668932715935392,0.019466204342599852,-0.04945284510985083,-0.6481234607649062,0.33225321331158014,-0.2578507324574095,0.32154319411270826,-0.08230796100869588,0.30362953111232877
24,192.031,-0.07136217020851668,0.021778612353523484,-0.05120895650999685,-0.6287047149420352,0.3284347898089849,-0.24389538186966633,0.24421709020914578,-0.028940849094435245,0.10295610466203164
25,192.038,-0.07570507827261168,0.024089269851509765,-0.05290923199342218,-0.6121261605127932,0.3317530667580521,-0.24189761339436647,0.23879493091151172,0.12561801492621663,-0.044751621689517226
26,192.044,-0.07932844416575718,0.026125109918596894,-0.05437641068976745,-0.5956624705356628,0.3468602889376315,-0.24716195205403962,0.3208147889258724,0.38788463139299256,-0.13418609437298276
27,192.051,-0.08340151252969905,0.02868630497742908,-0.05614264215392045,-0.5680713477373323,0.3849097278740136,-0.2574756091342205,0.4830456468403212,0.7206762194147882,-0.16629971533531018
28,192.058,-0.08723697850502432,0.03159400401597462,-0.05798230266813386,-0.5277760737833921,0.4458614259955458,-0.2681416806406626,0.6909470433651251,1.0551362029571618,-0.1444536002044939
29,192.065,-0.09074129899887784,0.03500077425892727,-0.059885757711137466,-0.4734583530311815,0.5275015005616586,-0.27570261735997953,0.8915861138633667,1.3234268731494874,-0.07583239288070785
30,192.071,-0.09341194378147276,0.03841305180583773,-0.061544292677712664,-0.4167565745004243,0.6099243484084509,-0.27714237149839815,1.035737981886458,1.4781702691566418,0.026894371625790787
31,192.078,-0.09607304961409259,0.04303956064217452,-0.06346350243021572,-0.3435593776761272,0.7119353191154024,-0.2712032720735118,1.096843970862654,1.4938937517410906,0.14613979906107144
32,192.085,-0.09821719977247648,0.048366770039460216,-0.06531285630759526,-0.2690549532902582,0.8101245086794243,-0.25718355003455157,1.0738237287031889,1.3668236350453318,0.26232128278354266
33,192.092,-0.09985364385181093,0.05433608608402722,-0.06703866224357467,-0.1985004979478251,0.8953943611956442,-0.23590386024492893,0.9817626144526634,1.1174921103536413,0.3576571368051309
34,192.098,-0.10088371152889217,0.059876691227557996,-0.06838553460466393,-0.14485539441257497,0.9514740199812105,-0.2130535934514727,0.8416634462730718,0.7886857990433576,0.4190357805334558
35,192.105,-0.10171538371445803,0.06668404617356036,-0.06977372452809075,-0.09276523003560896,0.9934845360259708,-0.18357209895751822,0.6759704152142217,0.435280038858206,0.43990015999241566
36,192.112,-0.10222244971976677,0.07370399684178323,-0.07095526495207533,-0.052110771481070635,1.0122156548934163,-0.15401087932355043,0.5084870281535594,0.11044640675142894,0.4213585524686379
37,192.119,-0.10248250492342179,0.08078532636395512,-0.07193803970073882,-0.022190715277454576,1.0110213514399615,-0.12678190600867748,0.3632262976754788,-0.14524213802863914,0.3719507490142039
38,192.125,-0.10256065588917364,0.08681136833738204,-0.0726389317639759,-0.0038596066398300724,0.9976593063689358,-0.10684878173700767,0.2598579916460126,-0.3089409952202317,0.3055869174899559
39,192.132,-0.10253142659284972,0.09371266344743287,-0.07332157697755476,0.012210834160941864,0.974139296501321,-0.08819270785681199,0.20835026647505694,-0.37630858739092626,0.23795311125678656
40,192.139,-0.1023961203884107,0.10044325536243844,-0.07388838783793243,0.026448081393035575,0.9488869649274682,-0.07375325225097906,0.20644835726010638,-0.3594117532186106,0.18273680268128045
41,192.146,-0.1021572099801937,0.1070084015213213,-0.0743647836719841,0.041812035240618564,0.9268690804739107,-0.06235984319281112,0.24117658085067695,-0.28207378257688354,0.14920730982564265
42,192.152,-0.10185919097167746,0.1125293948296713,-0.07471328886023225,0.05752763426479258,0.9134620223093529,-0.05380855288990226,0.29300512320298117,-0.17363937004768676,0.14145566896624995
43,192.159,-0.10138034979280142,0.11889522323735102,-0.07505389357316858,0.07928413112826643,0.9053460941692714,-0.04350707937755034,0.34086495077621526,-0.06281615874657301,0.158675175550905
44,192.166,-0.10074040847381108,0.1252283428558308,-0.07531584921119641,0.10355624572598679,0.9041166539665145,-0.031337388630349676,0.3662970143248136,0.02699672709979829,0.1958857090730702
45,192.173,-0.09992878861043374,0.13157009981689613,-0.07548227186455621,0.12833514381023264,0.9078139063365755,-0.016211940900986977,0.355629960424191,0.0807217924779038,0.2447904131603674
46,192.179,-0.09910077004243975,0.13703232107408977,-0.07553189514597175,0.14767104552108434,0.9129265127278995,-0.0003291529041949612,0.3016077884792223,0.09305846178234434,0.29507413442694724
47,192.186,-0.09800607999048543,0.14344207426873729,-0.07545832978220339,0.16509754075135766,0.9184315428843649,0.02134782826656767,0.20610877499733626,0.06732920974554751,0.33647926980814225
48,192.193,-0.09681583821083875,0.14988061408192477,-0.0752251127293049,0.17497153914745134,0.921151260882172,0.045285615418666755,0.08156768932859475,0.011909091314161475,0.36094214910022177
49,192.2,-0.09558749292908605,0.1563225436121345,-0.07482101806627016,0.17598425564020603,0.9194000334696222,0.0701700025916464,-0.05206244856243592,-0.0629306623197165,0.36405822376812763
50,192.206,-0.0945514084963475,0.16182046906877876,-0.07433732878193408,0.16937722193930277,0.91324178541173,0.09105975885370768,-0.17251419758764333,-0.14639151728602612,0.34599588108454843
51,192.213,-0.09341752202464801,0.16816812358443686,-0.0736209421354124,0.15459034140317635,0.9003737904892921,0.11362214015233946,-0.2582978544707885,-0.22851428416877786,0.3113534335894053
52,192.22,-0.09240137658679924,0.17440698421557924,-0.07275608939292724,0.13573692655340577,0.8821578184072569,0.1334786434146703,-0.2909916538805298,-0.3022034891795456,0.26716080382869295
53,192.227,-0.09151737741115501,0.18050204281117038,-0.07176321477195646,0.11683426648762266,0.8592874946175407,0.15019981971963528,-0.2597326014759189,-0.3641176526607921,0.22000646983482053
54,192.233,-0.09085390721157013,0.1855891136722235,-0.07082723051257113,0.10432246670732899,0.836402792400097,0.16179493340879875,-0.16555023484070272,-0.41374574334915787,0.17411771083724162
55,192.24,-0.09014613452066207,0.1913398825428922,-0.06965799541434525,0.0978983021234033,0.806674027789787,0.17227223751264129,-0.021616187475381642,-0.4523943499341503,0.13113591381935194
56,192.247,-0.08944531318002347,0.1968741798489411,-0.06842536540501959,0.10233636663033913,0.774553773937341,0.1799077651515842,0.15091808267427098,-0.48342118201677864,0.09132326698252236
57,192.254,-0.08867126368973247,0.20217642750893425,-0.0671484082275201,0.11882063059640138,0.7403741289229154,0.18493714270663028,0.32934680947595113,-0.512394194416268,0.05520638541990466
58,192.26,-0.0878855417730239,0.2065253084288873,-0.06603176338252684,0.1430866749731065,0.709252844394712,0.18727780562444324,0.4954691530496215,-0.5454350856539641,0.024354012127095294
59,192.267,-0.08674763406632707,0.21135406407773835,-0.06471777728588082,0.1820298126543291,0.6703916267046021,0.18814679341700805,0.6391293863145496,-0.586776735335793,0.0009637290431221356
60,192.274,-0.08530554388651568,0.21589970369031364,-0.06340218753509358,0.22999595300577372,0.6283625483159798,0.18773599252193754,0.7583520705513915,-0.6377299117889986,-0.012932309986234347
61,192.281,-0.08350155612648509,0.220137879556711,-0.0620915135831195,0.28542912128831033,0.5825448420823985,0.18674227947038888,0.8566793704313518,-0.697157456434125,-0.016019270291229074
62,192.287,-0.0816304498133012,0.22350435194602417,-0.060973184046795345,0.3382729831062992,0.539612621021953,0.186034232637649,0.9395120513075332,-0.7621319393821133,-0.008047624205187183
63,192.294,-0.07902815663090045,0.2270905778557687,-0.05967071498448097,0.40523935472195616,0.48502335319003465,0.18609978516619358,1.011536373285082,-0.8283126738396531,0.009957480666860209
64,192.301,-0.07594071994494118,0.23027927892258432,-0.058362533188060874,0.47688541269792584,0.42603409447462065,0.18766644238365524,1.0758535385519847,-0.8903245691277311,0.035686684042565475
65,192.308,-0.07233709168094472,0.23304137009346396,-0.05703668317118074,0.5527226627289002,0.3631348114904243,0.19114784815325456,1.1336457015677375,-0.9422302492615805,0.06574319902065712
66,192.314,-0.06881622095373782,0.2350506944908249,-0.055875511791177196,0.6209009130066883,0.3066399876298699,0.19590927851457998,1.1837698711230862,-0.9780593454030019,0.09610039219296634
67,192.321,-0.06418079812682159,0.23696046558299858,-0.05447785239556679,0.7035056089684296,0.2390088958479272,0.20342197737382328,1.2228972071694812,-0.9923555343511696,0.12278020294948244
68,192.328,-0.058959638999375605,0.23839651200439246,-0.05302203938910695,0.7882541417293583,0.17129008169288945,0.21252459590011868,1.2462300180404684,-0.9806151147197408,0.1424223025308045
69,192.335,-0.053142199393860085,0.23936487140515983,-0.051498939091725954,0.8738714598453178,0.10538403281187646,0.2226469176369968,1.248209050372971,-0.9395410732013096,0.1524889999853704
70,192.341,-0.047680848671334986,0.23983771819905395,-0.05013624850166352,0.9465787809963124,0.05223156515282633,0.2315832790504651,1.2231520889556784,-0.8671400278559022,0.15126275395941796
71,192.348,-0.04076783633462599,0.2400076706441141,-0.04848043949678686,1.0285676009191331,-0.003673723707099591,0.24150500805681333,1.1655715955634174,-0.7616465276195288,0.1378043297131377
72,192.355,-0.03329933521766343,0.23981628552241216,-0.04676018926772964,1.1052898610773099,-0.05100773963649273,0.2499950573897514,1.069712192432728,-0.6174181429153053,0.10955112610995836
73,192.362,-0.025322544789903492,0.23933507613513894,-0.04499032335252462,1.1737931182810426,-0.0864806567271882,0.25568091838274987,0.9261130079213682,-0.4160763907697852,0.056105006441332504
74,192.368,-0.0181353007247609,0.23876856898137055,-0.04345489408638356,1.221954903433064,-0.10235506119560057,0.2561288369975838,0.7109320975944315,-0.12350319615717309,-0.04088001065330584
75,192.375,-0.009450553878165874,0.23807070340631348,-0.04169007824203489,1.2594013384494565,-0.09703510310628168,0.24810426138739122,0.38006038538878845,0.2784988394725354,-0.19291398511740218
76,192.382,-0.0006018434721051426,0.2375137085546269,-0.04002329330778233,1.268801634708946,-0.06210628308976923,0.22812000554157258,-0.10618511388620666,0.739143562556044,-0.389322291747331
77,192.389,0.00817870109131775,0.2373043693450675,-0.0385450969082195,1.2399253834100878,0.0022950803585564256,0.19422182290464843,-0.7351172180980663,1.1371739930466673,-0.5982927489764908
78,192.395,0.015428616729060428,0.2375375156656251,-0.03750118296867218,1.1767131625040461,0.07542035982730379,0.15374949027777965,-1.413500332442958,1.3483937753806956,-0.77738370957858
79,192.402,0.023256777104875045,0.2383851751927616,-0.03662436814302964,1.0599040877361854,0.16676807649822434,0.09676903133521117,-1.9897027351038163,1.3129990162811191,-0.882727656331553
80,192.409,0.030158505152296504,0.23983673826713317,-0.03615879940955154,0.9120182115256796,0.24796423046478436,0.036250606801294424,-2.3189151403873782,1.0526305446072868,-0.8804614488419334
81,192.416,0.03598439823736789,0.24177650705838294,-0.03610214313326258,0.7525226699220985,0.3062554241776103,-0.020063099290173997,-2.327947421634083,0.6456687497573775,-0.7602242401381589
82,192.422,0.04011434044911288,0.2436877828425964,-0.03633730968045707,0.6241247339928445,0.33083650389351976,-0.058325749774654524,-2.036367811031135,0.1898554342031168,-0.5403439282128776
83,192.429,0.04405428276092706,0.24599929948324845,-0.03684186250530146,0.5015730693818308,0.3295968220065895,-0.08583220018078322,-1.5341441698601475,-0.22597325474702962,-0.26104959866091393
84,192.436,0.04726762869746187,0.24821487443914694,-0.037470650181304105,0.41652576962745913,0.3034245939639573,-0.09382142153412941,-0.9436875566959824,-0.5365480385332144,0.028285640287463703
85,192.443,0.05002379360098701,0.25018946614527254,-0.03809011883886404,0.37094991709344544,0.26074446492866105,-0.08316962348286874,-0.38415346470949663,-0.7069268057310868,0.2820518217190917
86,192.449,0.052220461163910936,0.25162679134132604,-0.038522934939656805,0.36127260388117083,0.2183639337558264,-0.061102410114715185,0.05521635868877721,-0.7336103526540577,0.468024686505862
87,192.456,0.05479532377718121,0.25299041353282586,-0.03882576769462139,0.37440242848422534,0.1712424066740019,-0.025421234161169592,0.32731778477796464,-0.639263508653821,0.571537416867577
88,192.463,0.057506561303633595,0.25405662614453933,-0.038863650577509144,0.40023686478733206,0.13338976810105369,0.014597553336105101,0.4253620309764547,-0.4635636129690767,0.5943999098370017
89,192.47,0.060404151766745996,0.25490419096921985,-0.038623915094469906,0.42764612467276275,0.10877161037892669,0.05389829896077031,0.37319987447723774,-0.25368023168471604,0.5506174471791082
90,192.476,0.06302178161816392,0.2555295370197997,-0.03821122847905716,0.44489715913317956,0.09967707314767968,0.08366390617680595,0.2131721098536728,-0.055448003789737986,0.46113162839833227
91,192.483,0.06616100174839389,0.25623192890919466,-0.03752825395944747,0.4520228780747424,0.1010063238221682,0.11147167085439531,-0.005566077458520095,0.09417538847221861,0.34904061412716936
92,192.49,0.06929607339362903,0.25697096684826903,-0.036677704031654136,0.4437118777060899,0.11014737305607145,0.13154259422924142,-0.23657283174075047,0.17214678602589395,0.23572069943721943
93,192.497,0.0723204547214665,0.2577832417800857,-0.03571202648510979,0.42039707310399893,0.12193117889137942,0.14436527621180378,-0.44269814697775123,0.1711714385695024,0.13786492089047994
94,192.503,0.07475085543865893,0.2585386067393922,-0.034827870940403606,0.3897364992972854,0.1298571408786388,0.15035323869164036,-0.5994713266908861,0.09823629282693573,0.06566915989023878
95,192.51,0.07732341250092584,0.2594558619808549,-0.03376482206982093,0.34527980420701726,0.13221578525337382,0.15337501004605034,-0.6957633235642646,-0.029517781125085577,0.022369389881244837
96,192.517,0.079568762569671,0.26035498894365766,-0.032687913047344926,0.2962487868625729,0.12467763269007887,0.1543132820897307,-0.7327430571470558,-0.19010440129455738,0.004966930550872382
97,192.524,0.0814677402474049,0.2611614269067288,-0.031606465755741664,0.24631626391815098,0.10573321390150353,0.15467165836812377,-0.7220284628896024,-0.3618364839665895,0.0054742723469520934
98,192.53,0.08282157440053425,0.26171731979141777,-0.030676896413287635,0.20496178712495028,0.07956441432815799,0.15518478911654068,-0.6836325526185522,-0.5276551560037217,0.011967319104321255
99,192.537,0.08409691271670713,0.2621294238757197,-0.029587972937562535,0.15942058892418437,0.038179609758019345,0.15593620394755112,-0.6431988234879926,-0.6780807351695147,0.009924963348617546
100,192.544,0.08506027842267129,0.26221771440797026,-0.028496979250764515,0.11582675563680637,-0.012953743400732465,0.1557762779945177,-0.626896564768135,-0.8116766716838602,-0.01458436583958851
101,192.551,0.08571715738772522,0.2619175474275634,-0.027416664991553652,0.07185294866494354,-0.0728082510015065,0.1528849389239042,-0.6542692613953052,-0.9321693803311146,-0.06965407208986844
102,192.557,0.0860258861832087,0.261306356590854,-0.02651900030848907,0.031056649829547756,-0.13092202790162324,0.1463366220976128,-0.7324189836694976,-1.0431493030831858,-0.15292675575964013
