,Time,Position X,Position Y,Position Z,Velocity X,Velocity Y,Velocity Z,Filtered Acc X,Filtered Acc Y,Filtered Axx Z
0,70.1933,0.0,0.0,0.0,0.0,0.0,0.0,0.0003927017574371183,0.0010307130592631837,-0.0005435872540340372
1,70.2,4.0052349695612324e-07,9.447267701852035e-07,-5.216824630292287e-07,0.00011955925282255822,0.0002820079910996712,-0.00015572610836671886,0.003246597004190385,0.00755340994710317,-0.004196604909705715
2,70.2068,3.0668184773598022e-06,6.7527711588595594e-06,-3.8527023827528166e-06,0.0006646451531787127,0.0014262403585108446,-0.0008239856327286898,0.013101430350485381,0.026764010537119534,-0.01584560307467619
3,70.2135,1.2800191729713858e-05,2.6178099672465233e-05,-1.5501199602034485e-05,0.0022408393997649457,0.0043723651679429,-0.002653177716313186,0.034876803322580335,0.06291393673561475,-0.03983370511288706
4,70.2203,3.9904578050350936e-05,7.592901329415889e-05,-4.6712068438492926e-05,0.005731038929836113,0.010260256485499933,-0.006526489588529742,0.06980005101101887,0.11367365846339489,-0.0763333217700561
5,70.227,9.847366312221016e-05,0.00017615148111514977,-0.00011209851989115252,0.011752270046814131,0.019656898087888855,-0.01299185412865512,0.11348194875200214,0.17235343973020656,-0.12046778403201343
6,70.2338,0.0002091843215929734,0.00035563380200637435,-0.00023275944009031876,0.020809688326947597,0.03313201982130756,-0.02249665181228467,0.1581650003061444,0.23178773978219364,-0.16459681299958778
7,70.2405,0.0003876399951066559,0.0006347047946903944,-0.00042380050289801615,0.032460661975683605,0.05017275411428243,-0.034530531115428385,0.1964823646670947,0.28692011214641233,-0.20170592820770364
8,70.2473,0.0006559528941008897,0.0010465142606719251,-0.0007072857970776258,0.04645489655205122,0.07094767705678522,-0.04884749658447688,0.2232278672664878,0.3361541745548324,-0.22768353677574982
9,70.254,0.0010176328838326367,0.0016008262670181672,-0.0010862333163847613,0.06150927948712712,0.09451859349410324,-0.06427116589510883,0.23501685975601808,0.38132778502271797,-0.24180200530304935
10,70.2608,0.0014886042988372808,0.0023350811122944217,-0.0015785775770248754,0.07701172492603683,0.12143871394014125,-0.08053596958731254,0.2299271095047401,0.42605113480522844,-0.24600634839834448
11,70.2675,0.0020528055414046355,0.003247696090611996,-0.0021720710699506636,0.09140655643747722,0.15098366764739593,-0.09662626710708364,0.2082413405045794,0.4732762773437935,-0.24377088302139463
12,70.2743,0.002717637550920208,0.0043874014253503174,-0.0028838402765000238,0.10413226989067949,0.18422378374630857,-0.11271761717219042,0.17342384567026808,0.5236497611073251,-0.23883530962851043
13,70.281,0.0034489020922588024,0.005742649215080986,-0.003691077097708349,0.11415565289665919,0.22032779527721272,-0.12824859811354397,0.1316808158243836,0.5753307138644413,-0.23391672229171448
14,70.2878,0.004250274371908669,0.007376908821429292,-0.004615740385449471,0.12154207641218184,0.26033679482534616,-0.14371119239861627,0.08985023754919558,0.6246053303787376,-0.22983204497863488
15,70.2945,0.005080356370146339,0.009263239430992231,-0.0056287136721756914,0.12624359470372387,0.3027469692237087,-0.15866889319152405,0.05326064088367769,0.6663302645246574,-0.22546974628740019
16,70.3013,0.005947684938218939,0.011476179259474837,-0.006757984490342471,0.12885304296474936,0.3481176862125085,-0.17346958273996163,0.025001026725010485,0.6944125504142674,-0.21842740358902318
17,70.308,0.006814450015966548,0.013962393078194926,-0.007966918089341194,0.12988280113865722,0.3940356925088808,-0.18740611845318872,0.006344080898241067,0.7032989566892786,-0.2057908477394529
18,70.3148,0.007698072517470508,0.01679979864983101,-0.009285552006523,0.13000616989198172,0.4404953579725208,-0.2004273866003771,-0.0026440480176555437,0.6901032233935394,-0.18473851235537808
19,70.3215,0.008568532962795236,0.019899266667488435,-0.010665572719300567,0.12983276901111443,0.4847189756572457,-0.211519094826067,-0.002634151670856841,0.6560322974925732,-0.15288521025253327
20,70.3283,0.009451716606213661,0.023338571794861977,-0.012133537787945185,0.1299271261120146,0.526841355923451,-0.2202353371283364,0.005464077129607756,0.6072875285862924,-0.1085293071554171
21,70.335,0.010325167936411491,0.026996362255288665,-0.013626733194529282,0.13080461424573964,0.5650363934584577,-0.22549463498664932,0.021246038591462055,0.5553422931980532,-0.051559985232813806
22,70.3418,0.011222290502783863,0.030959836721769884,-0.015164303485582014,0.1330549640985876,0.6006913907985695,-0.22673192120449448,0.04624567405022422,0.5140100262528211,0.014451725926092928
23,70.3485,0.01212824359869809,0.03509538076127234,-0.016672957257772975,0.13737879587600874,0.6337993672627782,-0.2236124884050808,0.0853686950730226,0.4937732686567396,0.08050159350255169
24,70.3553,0.01308861336400351,0.039517738135544773,-0.018169264497134498,0.1450828998021242,0.6668939781117806,-0.21647787611312036,0.14569011904252832,0.4987888267824121,0.13347722495113726
25,70.362,0.014102214370766778,0.04409899164957903,-0.019587234942594876,0.15748456490355298,0.7006443842875163,-0.20679688372611124,0.23180776071445233,0.5285495723821705,0.1612053092206955
26,70.3688,0.01523809886258711,0.04898907420643162,-0.02095727614587025,0.17659910916133062,0.7376151912577106,-0.1961564113549786,0.34146902408980384,0.580266053335289,0.157920049326077
27,70.3755,0.016510108852544093,0.054066324755495304,-0.022240312003777445,0.20310536545217026,0.7779819875651759,-0.18683936712425211,0.4653625963603469,0.648470563400326,0.12568416139306143
28,70.3823,0.018010850198246855,0.05951203852326456,-0.023488454138158203,0.2382891479899248,0.8236985323673439,-0.18026126063488287,0.5898572120998488,0.7226441994265491,0.0716041279571369
29,70.389,0.0197492217335404,0.06519692150024427,-0.02468780520654987,0.28062772821748705,0.873281460762183,-0.17775398366140266,0.6988991070805675,0.7866249340414677,0.0047156027976658355
30,70.3958,0.021824543855321638,0.07131759238281637,-0.025903380715090574,0.32976113113008326,0.9269158576418105,-0.17976822473300735,0.7746928796477669,0.8219593033544762,-0.06512602272595477
31,70.4025,0.024207215897848966,0.07770787319968082,-0.027129010967230846,0.38148425469798725,0.980630654852407,-0.1860915520247773,0.7997222752172971,0.8130809829855598,-0.12735157009120163
32,70.4093,0.026978228041725418,0.08455345472412351,-0.028428313790447073,0.43351931703057756,1.0327756758665152,-0.1960563371565576,0.7608952748965921,0.7508344097842546,-0.171508811018216
33,70.416,0.030038475708151324,0.09162536983693738,-0.029781584240413172,0.4799874490673841,1.0782437607959015,-0.2079049911918302,0.6535616691262667,0.6331818103825168,-0.18915580455619496
34,70.4228,0.033431207956317016,0.09908182664608273,-0.03123671258297485,0.5178749768639413,1.114831771306199,-0.22007393309111883,0.4827479298093408,0.4641531166164925,-0.17581088219362984
35,70.4295,0.03698283227126754,0.1066300562346163,-0.032745061527496226,0.542311385806394,1.1383710909395182,-0.23017948318329748,0.26107900707255205,0.2523670586829686,-0.13179488706132336
36,70.4363,0.04070071349774765,0.11440068952366655,-0.034332208268258446,0.5511830925703702,1.1471092881934595,-0.23662838174687859,0.004998146574937976,0.009705924024249019,-0.06161824297206788
37,70.443,0.04436461844940466,0.12205988642175251,-0.03592137228359195,0.5425198780743233,1.139218144072696,-0.2377489362634735,-0.26870024442959456,-0.24990674787182746,0.027509359148237975
38,70.4498,0.04796152279846645,0.12972022179582804,-0.03752052480964824,0.5153931657676352,1.1138216718324152,-0.23259004198848882,-0.5448747068623009,-0.5117754431830139,0.12721440947653143
39,70.4565,0.05126548663688534,0.137042668913013,-0.03903966280681901,0.4708646964455966,1.071983437772018,-0.22088398701708611,-0.8105402813977094,-0.7617506939421601,0.22910959184686347
40,70.4633,0.05425591729915724,0.1441338209397252,-0.04047878939687708,0.40867373363458465,1.013649511261482,-0.20238853947068383,-1.0546695150467469,-0.9877802069246285,0.32559945901648346
41,70.47,0.056738395507863165,0.150686511444382,-0.04175377748059264,0.3323645376214641,0.9423775050554217,-0.17820491835513724,-1.2681282274591408,-1.1816890545630432,0.4105327959105755
42,70.4768,0.058690997373292655,0.1568087838551644,-0.0428646427610274,0.24193012868146435,0.8582908510574762,-0.14852016412575297,-1.4441492139295669,-1.34020872122493,0.4797620619122353
43,70.4835,0.059979216692143136,0.16225066220587026,-0.04374843848169451,0.14261295157188003,0.7661504476584499,-0.11529945398346836,-1.578995136091437,-1.4644797329895167,0.5314527661080969
44,70.4903,0.06058047123845576,0.16711777439470668,-0.0444080805971673,0.03422662087305092,0.6653531372937869,-0.07871293292033901,-1.6716901191676805,-1.5585982553469464,0.5658374899077985
45,70.497,0.06043622014032414,0.1712249643586995,-0.044808869137441025,-0.07728665016610416,0.560673717630345,-0.04092543731071356,-1.7226946701132932,-1.6277689505041326,0.5843870450473021
46,70.5038,0.05951892583930031,0.1746630068665984,-0.0449541674224873,-0.1925057913115577,0.4505152552813449,-0.001809352408788767,-1.7329178672819878,-1.6760654628494303,0.5887690126798587
47,70.5105,0.05785091966999916,0.1773094299246805,-0.04483767743341252,-0.30540649803243636,0.33946177698254254,0.036582483475913266,-1.7036994789876019,-1.7043235618957941,0.579851211130513
48,70.5173,0.05539533409889277,0.17923077399133303,-0.0444599638190688,-0.4168245522916355,0.22563941909068416,0.07450975603674148,-1.63791217825798,-1.709397136383312,0.5576503989941318
49,70.524,0.0522529182366957,0.18036878149549995,-0.043841923265803634,-0.5212100334395283,0.1140643134967072,0.10997996135598159,-1.5395077478938684,-1.6868698528401747,0.5220374649375653
50,70.5308,0.048376499962098536,0.18076829891912208,-0.04298299846899045,-0.6189129885010891,0.0034408110980630874,0.1426449788832508,-1.3907654089341146,-1.6309118804635694,0.4576404165263358
51,70.5375,0.043954162938777006,0.1804451892001148,-0.04194358393000747,-0.7011876154764627,-0.09989147348836927,0.1676280178283163,-1.1136158162468326,-1.5144494901905294,0.302825549496384
52,70.5443,0.03899142087067674,0.1794498254970282,-0.04077241204702708,-0.7584424045503281,-0.19286255683067094,0.17683430069469255,-0.6035499687279933,-1.273907010459233,-0.026713905376165838
53,70.551,0.03385964405594281,0.17792298543130783,-0.0396505892663819,-0.773431271490784,-0.2629105971160485,0.15803817113993587,0.14729950206044032,-0.8583055974925103,-0.5454269318845258
54,70.5578,0.028728858806094805,0.17600286113408617,-0.038769336376849706,-0.7356232137589913,-0.301831843243398,0.1011538551931249,0.9866266582431983,-0.3090069232537333,-1.160627751501828
55,70.5645,0.02409383525159485,0.17397273385794762,-0.03841032155788207,-0.6479659069882872,-0.3041762988879608,0.006014747483859592,1.681599517880178,0.23764335813820786,-1.7353391326612475
56,70.5713,0.02011077158337369,0.1720029677202405,-0.038810350635468706,-0.5235234071946886,-0.27516668279074025,-0.12367035853877993,2.050636794562927,0.6324029908796877,-2.154131608311662
57,70.578,0.017053087505156477,0.1703161897126769,-0.040134074286208916,-0.3892181086897857,-0.22834914036187892,-0.27147102974133414,2.0375211270520186,0.7926897573718351,-2.3448158756900197
58,70.5848,0.014830477165183788,0.16893552153649524,-0.04250456329586982,-0.2644908148317505,-0.17772973498576744,-0.4257316201590987,1.7032566302400818,0.7254699000792061,-2.281714273503512
59,70.5915,0.013375182740094034,0.16787980393719865,-0.04582630495169502,-0.16992543146401995,-0.1374098468940474,-0.5658330532222928,1.175246492345575,0.5018388638793929,-1.9828738684692278
60,70.5983,0.012420343339134856,0.16702667678489727,-0.05006882386626791,-0.11090968646521743,-0.1135099037828904,-0.6819666275347405,0.5947332722504399,0.2149599443471603,-1.5001640314574927
61,70.605,0.011751354170708413,0.166283935013794,-0.05490275689632125,-0.08878857276628062,-0.10820405774017305,-0.7609984560612792,0.07861772141830205,-0.05345375827802044,-0.9055087115183842
62,70.6118,0.011122481434006338,0.16551387171294332,-0.06021161775979251,-0.09617399685202153,-0.11828514839243268,-0.8004312096659373,-0.3001188002403468,-0.24889481768115146,-0.27714476415936184
63,70.6185,0.010388451565998071,0.16465587999156808,-0.06557072888447985,-0.12293939658344377,-0.13783178336156246,-0.7993034544210182,-0.5146009625353709,-0.34609087148892975,0.31147283304042706
64,70.6253,0.009428986888178902,0.16364029044155703,-0.07088001550191063,-0.15925609689285025,-0.1608710254652916,-0.762251433059,-0.5745969229755483,-0.34489409050818715,0.7997785465614448
65,70.632,0.008242319610142414,0.1624954885345744,-0.07577288440462748,-0.19497294132650786,-0.18086088706636505,-0.6983064483469983,-0.5125984604680581,-0.2635831026193159,1.1466613832703105
66,70.6388,0.0068163642823278235,0.16122096522809065,-0.080240061048249,-0.22442568450141367,-0.19399890895835958,-0.6155690350714116,-0.3707380022417574,-0.13044789531389006,1.3347704325235539
67,70.6455,0.005250920729089314,0.1599094799934205,-0.08406662098565353,-0.24287089855520358,-0.1974892207942124,-0.5266876626621279,-0.19072121634068495,0.02420528136253099,1.3707154324777242
68,70.6523,0.003576929377366431,0.1585889295220831,-0.08734744817104101,-0.2494794990104689,-0.19090797665806183,-0.43826150951089216,-0.007481637463108665,0.1731771112021832,1.281331097510689
69,70.659,0.0019214666686360798,0.1573613739473127,-0.09002095545865348,-0.2446884737441773,-0.17552652327289217,-0.3598003673872501,0.15331704465169674,0.295023408081401,1.1069703565828277
70,70.6658,0.00030616141547833175,0.15624386853452332,-0.09224087364523985,-0.2304013065964512,-0.15315153931229994,-0.29311674631478307,0.27517871940905114,0.37603935396984894,0.8929816889373954
71,70.6725,-0.0011687297251338948,0.15530443230096969,-0.09403148822078322,-0.20986470552692726,-0.12727718712183012,-0.2413950672806483,0.34994083492136435,0.41155755435679475,0.6813894953487791
72,70.6793,-0.0025134152497987066,0.15453156034051943,-0.09553852674950339,-0.18563103702164208,-0.10003809536359379,-0.20185155881362318,0.3768669496309256,0.4053878424865503,0.5045857017649032
73,70.686,-0.0036759115878679583,0.15394635230396536,-0.09679336467628256,-0.1613827952373568,-0.07465087077170518,-0.17272692679158547,0.3612323125663994,0.3673812476276295,0.3819474167379922
74,70.6928,-0.004696969301845114,0.15351553812524832,-0.09788839145367824,-0.13892829710893753,-0.052059181792158474,-0.14933977244251453,0.3122152108405766,0.31018085622543257,0.31947200870820336
75,70.6995,-0.005566940337835179,0.15322795714523554,-0.09881950636096852,-0.12076454945545322,-0.033785886868436435,-0.12860497600255272,0.24067637037469108,0.24604526611069968,0.3116804719676693
76,70.7063,-0.00634300307453811,0.15304700841937255,-0.09961959248215618,-0.10748919663369899,-0.019434326620689633,-0.10671447140563804,0.1574734091943776,0.18438175348225538,0.3448519529660699
77,70.713,-0.007037873260136053,0.15295145571725421,-0.10025249778277984,-0.09993473936584046,-0.009088868041518813,-0.08221248400454587,0.07247890591875644,0.13052665976789068,0.4009711456337242
78,70.7198,-0.00770986065556613,0.15291417112430475,-0.10071373981030672,-0.0977086122308755,-0.0018771887083023483,-0.05344693585605189,-0.005713672634354007,0.08576352666931772,0.46175520207693155
79,70.7265,-0.00837281117428957,0.1529163300628112,-0.10096467272305652,-0.10018706500014869,0.0025216479639583343,-0.02145841123349502,-0.06972866981131152,0.04813393819484389,0.5119527736510996
80,70.7333,-0.009074861518598999,0.1529404731938391,-0.10099118633270558,-0.10629833038502735,0.00457927292660998,0.013660290748474718,-0.11355828297613171,0.013577636353523543,0.5413151613419377
81,70.74,-0.009814178128943907,0.152970120955077,-0.10078010030556836,-0.11439319509122786,0.004270805054855493,0.049350463620890093,-0.13284365083824382,-0.022967179338928907,0.5450683587181794
82,70.7468,-0.010621255610591547,0.15298900080216482,-0.10032342177315665,-0.12298253480519405,0.0012820911474470467,0.08496675179435233,-0.12476484813553952,-0.06666929205335761,0.5231230088283567
83,70.7535,-0.011468613630629121,0.15297681806128738,-0.09964389499488938,-0.12996015774298572,-0.0049187302153374845,0.11787706261350776,-0.08762903955708819,-0.12207930727209147,0.4786434841981916
84,70.7603,-0.012364620852039081,0.1529077161456208,-0.09874083682188124,-0.13357137796588942,-0.01540536262777939,0.1477282823889491,-0.0206774254408397,-0.19243213656642122,0.4166439505721678
85,70.767,-0.01325349846375204,0.15275263287892807,-0.09766746164108515,-0.13176522254563752,-0.030888149817842336,0.1726822193414636,0.07565551395397982,-0.2788529117859922,0.3429361714614707
86,70.7738,-0.01411836540844219,0.15246793386215352,-0.0964244734083906,-0.12260740824564445,-0.052846855115872296,0.1929025549805544,0.19900247772679397,-0.37972496493197455,0.26350512509856655
87,70.7805,-0.014880067484232215,0.15201805870959137,-0.09508275301178379,-0.10476634572121318,-0.08144423520100177,0.2076109962448053,0.34406679728485867,-0.4907589789921562,0.18420938310350826
88,70.7873,-0.015496574434418094,0.1513399026646973,-0.09363758541585193,-0.07655922786291225,-0.11801342506200535,0.21743829667643041,0.501911302759131,-0.6060114856179142,0.11052760454165443
89,70.794,-0.01588158564853355,0.1504033332950652,-0.09216341503914616,-0.03836949276865216,-0.16155952109703578,0.22261256204203644,0.6605571164939436,-0.7195007573327505,0.04697335914677958
90,70.8008,-0.015975984734181475,0.14912955381794563,-0.09064480674289019,0.010605055813373315,-0.21308150158527697,0.22403693685688686,0.8082705662230745,-0.8257286199791518,-0.004254003497933569
91,70.8075,-0.015712842593193135,0.14750997003076313,-0.08914907104069926,0.06794483701885859,-0.27037634533419974,0.2224513324532213,0.9371116589637813,-0.9182857409382494,-0.04401066867474556
92,70.8143,-0.015026479590197771,0.14545510594526567,-0.08764979195606953,0.13392663445041436,-0.3339954445181412,0.21851310420268663,1.0417915352244258,-0.9897562265009171,-0.07410330772169188
93,70.821,-0.013891643075854557,0.14299454191642405,-0.08620434003653038,0.20483053401049744,-0.4005012805097559,0.21296508073469292,1.116472821337628,-1.0346341979274616,-0.09477458721261901
94,70.8278,-0.012241295437029705,0.14003460737911144,-0.08477884707037375,0.28056583034987,-0.47006770105298473,0.2062975563702995,1.1549539307789818,-1.0517777699192532,-0.10519549204617389
95,70.8345,-0.010107582563160779,0.1366544493320134,-0.08341976210134734,0.3563633857295264,-0.5389347010644376,0.1993994493086671,1.1522698341350863,-1.0444848106996338,-0.10477798883724027
96,70.8413,-0.007428362653125702,0.13275573347958158,-0.08208628196348698,0.4316424701633332,-0.607746432004023,0.19280059123859056,1.1054743686680206,-1.0192927681882196,-0.09313267472743342
97,70.848,-0.004302976920990997,0.12846350296889422,-0.08081246649756733,0.5013084946536871,-0.6735164070080781,0.18744283142427295,1.0151099497374685,-0.9826985702845494,-0.06995372968765078
98,70.8548,-0.000678742481080363,0.1236664174218657,-0.07954956086612681,0.5646428112026384,-0.7373911068241822,0.18400000135244185,0.8843909156406933,-0.9330092827035485,-0.033302436276319666
99,70.8615,0.0032799336255242436,0.11852986312733059,-0.07831770290446145,0.6170515489762091,-0.7959086825871662,0.18371879317402257,0.7108938488173653,-0.8482241725082925,0.02474265900002897
100,70.8683,0.007610239191391244,0.11294451459763458,-0.07705256846927729,0.6565677351026269,-0.8468408849708812,0.18837957011552858,0.47426190612885405,-0.679316784355231,0.11504174724492763
101,70.875,0.01207635622084412,0.10715563833694387,-0.0757518096330515,0.6766015274216057,-0.8811818794156827,0.199906649653648,0.13555250685952025,-0.36599870236641197,0.2358343689734362
102,70.8818,0.01665504192756714,0.10113556864212699,-0.07432474321156335,0.6700707392619595,-0.8894268543544164,0.21981876843120335,-0.3314216412688494,0.11871827234801703,0.36136299432716207
