,Time,Position X,Position Y,Position Z,Velocity X,Velocity Y,Velocity Z,Filtered Acc X,Filtered Acc Y,Filtered Axx Z
0,101.338,0.0,0.0,0.0,0.0,0.0,0.0,1.2490483971752457e-05,0.0008093858171049186,8.79332322702119e-05
1,101.345,1.0861719656006445e-08,8.679128635737541e-07,9.13325121555322e-08,3.103348473142481e-06,0.0002479751038780383,2.609500347299055e-05,7.792479467343113e-05,0.0064153065782991065,0.0006723381425613536
2,101.351,5.668814195658555e-08,5.1266548820066695e-06,5.290851758521307e-07,1.2172125627049976e-05,0.0011716055689328798,0.00011982255109253674,0.00023032784185066736,0.02497939208892523,0.002513511854448928
3,101.358,2.2295887363327886e-07,2.4168468420687265e-05,2.4246524347856924e-06,3.533379770911417e-05,0.004268912584971973,0.00042176809431666536,0.0004444816593419679,0.06525987022030606,0.006283595741603981
4,101.365,5.991595563633788e-07,7.768639382329387e-05,7.583299064983244e-06,7.215211164248434e-05,0.011021923244364313,0.0010521309428845739,0.0006282106735842639,0.1314873999455282,0.01208186759395295
5,101.372,1.2477883590405082e-06,0.00019720893612217515,1.872274384474496e-05,0.00011317040340799165,0.023127374555291652,0.002130567565616499,0.000566846959041935,0.22120188483043482,0.019338112659421893
6,101.378,1.9472557774430583e-06,0.00038429150244477945,3.560034650351026e-05,0.00011998540272618282,0.03923348088557409,0.0034952999873050553,-0.0003352014491688418,0.3262533736007259,0.027049879899658083
7,101.385,2.3248669969455684e-06,0.0007504192141518044,6.741731901702019e-05,-1.2096482868399915e-05,0.06537443674492972,0.005595263587977,-0.003512971127442462,0.4353568124708815,0.03413203239368934
8,101.392,4.542353665187579e-07,0.0013248514700528481,0.00011544497092072285,-0.000522369697254249,0.09874906494129868,0.008126922670241812,-0.011353710865651739,0.5370046010717614,0.03962721937550056
9,101.399,-7.722615093588608e-06,0.002155298657005329,0.0001822246062707905,-0.001813873291346186,0.1385215599020977,0.010952973144049595,-0.026273922106173197,0.6217570544162592,0.04270905167689067
10,101.405,-2.5286804683755638e-05,0.00310162044821987,0.000255479783208996,-0.004040856572042601,0.1769190371694039,0.013465419168684647,-0.0494224431390543,0.683393949147811,0.04269034650818299
11,101.412,-6.916596838959751e-05,0.004508543391699481,0.00035956804349373617,-0.008496047343903263,0.22505894668162646,0.016274083769791284,-0.08037842148873778,0.7191502285912933,0.039139391507919195
12,101.419,-0.00015242889786972106,0.006257978048235996,0.00048202970762871195,-0.015293361079020476,0.27477952661517807,0.01871496312596211,-0.11765960766571079,0.7294463850365446,0.031975015732474917
13,101.426,-0.0002927176971190731,0.008355223168519606,0.0006194587811646702,-0.024789152992194315,0.32443336489399693,0.020550486455712193,-0.15899790573203615,0.7172057272337261,0.021502495657355264
14,101.432,-0.00047326246144966354,0.010425747526038563,0.0007454073029070077,-0.035392435118000214,0.36574142094562917,0.02143235412506535,-0.20141338408339518,0.686877422181234,0.008472663013992727
15,101.439,-0.0007742375099134002,0.013145755175392829,0.0008957373357497622,-0.05060043587175198,0.4114036217280406,0.021519083830063856,-0.24166789979093717,0.6434793337656128,-0.005945814833024629
16,101.446,-0.0011907537294087941,0.01617398526569762,0.0010431935696402878,-0.06840419826970409,0.45380497550128096,0.020611268710056217,-0.27704024790007986,0.5918734632273914,-0.020503150774336284
17,101.453,-0.0017396077778652516,0.0194861507860935,0.0011808768951881937,-0.0884112441463146,0.4925280303254375,0.018726824303603073,-0.30586001079015923,0.536313017349677,-0.03439966390321992
18,101.459,-0.0023259740871106093,0.0225310358174188,0.0012860018412671728,-0.10704419226879722,0.5224336467829572,0.01631482438938864,-0.32748396574555566,0.48019504801136625,-0.047585516704304553
19,101.466,-0.003155721355202926,0.02629692563769786,0.001387207021036375,-0.13002645575789085,0.5535348732981893,0.012600941258992845,-0.34209851113416667,0.4259313783064314,-0.06061753590068962
20,101.473,-0.0041491632675546945,0.030267880699751566,0.0014592047635517411,-0.1538140906281258,0.5810237158592015,0.00796984231681133,-0.35094825873898633,0.37494914842048044,-0.07430836910628326
21,101.48,-0.0053108859010107074,0.03441947590213997,0.0014953139945674072,-0.17810666178764073,0.6051463419652103,0.002347080830514465,-0.3568097031541483,0.3278575070047843,-0.0895093751588793
22,101.486,-0.006443130745072469,0.03810441786337903,0.0014920409422552483,-0.19930828623293234,0.6231676451144289,-0.0034380982679007403,-0.36384496979025827,0.28469632633680625,-0.10713198889561389
23,101.493,-0.007927171842363802,0.04253024396066906,0.0014397050723200077,-0.2247034558508636,0.641354096970101,-0.011515007427901949,-0.37603692137440115,0.24516138262878828,-0.1281867317105006
24,101.5,-0.009592585408628186,0.04707424857849932,0.001325294900355488,-0.25112899165290586,0.6569329366947579,-0.021173613133366076,-0.3938644298813691,0.20872420155995192,-0.15321432064995227
25,101.507,-0.011447178143381222,0.05171880744842834,0.0011369417034402139,-0.2787546468475831,0.6700838832840144,-0.032641585985245206,-0.41100209857949344,0.17442532567038863,-0.18090218926557694
26,101.513,-0.013192618539537111,0.0557671015784653,0.0009068359268847514,-0.3030588185376911,0.679347493394921,-0.04406033953323938,-0.4151098319338849,0.14044978835619146,-0.20722741489737176
27,101.52,-0.015411229186839343,0.0605519385006347,0.0005463164558894588,-0.3308299378352089,0.6877487700838483,-0.058945223608408294,-0.3939947566449826,0.10431929877020854,-0.2264399456673906
28,101.527,-0.017815532821130287,0.06538641384583868,7.849646214140447e-05,-0.3561139576759987,0.6935298999734453,-0.07471763174808314,-0.3426488136661745,0.06411246916548036,-0.2330852056960377
29,101.534,-0.02038139371662612,0.07025120909264432,-0.0004993847907058878,-0.3769891553222868,0.6964115991128849,-0.09039129763673949,-0.2655448288773523,0.019845111789063372,-0.2235631149739783
30,101.54,-0.022682058952631826,0.07442912470410837,-0.0010788376090306595,-0.3898992566795859,0.696226938041744,-0.10275964180484373,-0.17327649329684075,-0.02612184139400428,-0.1968435875562357
31,101.547,-0.025441474553571694,0.07929117471087146,-0.0018403733332466863,-0.39850520073284285,0.6929302067495402,-0.11482199368573587,-0.07745552610597715,-0.06992759713446155,-0.15459000614681281
32,101.554,-0.028238834216569756,0.08412034950188954,-0.002674808364005122,-0.4007404172660322,0.6868340192546405,-0.12358801510221823,0.012333053580038274,-0.10768329503405373,-0.10080582704439942
33,101.561,-0.03103181477695121,0.08889883637088054,-0.003556961044329304,-0.3972540285566695,0.6784479433132412,-0.12845560784736798,0.08924200618218407,-0.13664292212888696,-0.04101026553844078
34,101.567,-0.033394303595589696,0.09294373042093398,-0.004329646144075997,-0.3902422443246616,0.6698500733743794,-0.12910609206879678,0.14909232926108684,-0.15560332366289004,0.018899955309146572
35,101.574,-0.03608520918499408,0.09759420576048197,-0.00522225558999917,-0.3785879240760427,0.6588571664955238,-0.12592517819478447,0.19045336527448867,-0.16467225839761224,0.07377517181698148
36,101.581,-0.038686632464395514,0.10216662295195304,-0.0060804584523245775,-0.36467587003812113,0.6475477453524204,-0.11927563961229959,0.21487083639075513,-0.1648248872883775,0.11995746536522577
37,101.588,-0.04118634515105585,0.10666071283572419,-0.0068823099862418005,-0.34952775472291364,0.6364779357267385,-0.1098247986500655,0.22646570026629304,-0.15769123699453352,0.1553904133627369
38,101.594,-0.0432431894072812,0.11045281582965943,-0.007511726335894326,-0.33608699735217984,0.6275563955849633,-0.09998065123410158,0.23039290658835215,-0.14555673391550428,0.17921747740402347
39,101.601,-0.045540360900743045,0.11481246764755754,-0.008167075030332763,-0.3202477150650206,0.6180584095278913,-0.08726183289103254,0.23108060627275842,-0.1311647053138599,0.19134210186281359
40,101.608,-0.04772654986730018,0.1191090254168147,-0.008731824084091224,-0.30437770395085884,0.6095295245447089,-0.0740950396112696,0.23128818324835912,-0.11732221742810721,0.19226911471700078
41,101.615,-0.049801543864638635,0.12334883310956801,-0.009205391493896362,-0.288477723860907,0.6018441019578328,-0.06120993461894762,0.2319537448593988,-0.10659064015573988,0.18313518432902356
42,101.621,-0.0514914106342028,0.12694157166413075,-0.009541859828385391,-0.2748111993271277,0.5957354162297062,-0.05094617687739117,0.2325788098790937,-0.10104688907617183,0.1657354881757246
43,101.628,-0.053359276772256485,0.13108732236220333,-0.009861454314638958,-0.25886484011640093,0.5887647832187518,-0.04036653348070539,0.23201436226766137,-0.10204075366623488,0.14249976608478007
44,101.635,-0.05511591500348976,0.13518319561831832,-0.010112920010162917,-0.24303179737846145,0.5814847185275539,-0.031480808097517424,0.22927736289341838,-0.1100621033948312,0.1163836121237858
45,101.642,-0.05676268528480445,0.13922537431880813,-0.010308422121694253,-0.22747399728349837,0.5734234816139092,-0.024376938054366283,0.2239952369672747,-0.12480001024832607,0.09058585810189888
46,101.648,-0.05808865826578899,0.14264207654532235,-0.010440679039623214,-0.21451699637799773,0.5654772605574554,-0.01970870125528597,0.21642022619633225,-0.1452963378574153,0.06809003356617448
47,101.655,-0.059539379040095125,0.1465625299128064,-0.010564314026861586,-0.19997465342345844,0.5546522730086215,-0.015615580812795139,0.207267284815624,-0.17008695668036264,0.05116200291600583
48,101.662,-0.060890570522813985,0.15040095396306868,-0.010662554521527708,-0.18608005592451077,0.5420403127798117,-0.012453131948933938,0.19754832496921598,-0.19735933825509608,0.0409751507751539
49,101.669,-0.06214677297873107,0.15414447571783285,-0.010740301082655763,-0.1728349314808442,0.5275373314399318,-0.009760171230539764,0.18834505040606475,-0.22518138199665752,0.03748358366664153
50,101.675,-0.06315122582492455,0.15726760414656646,-0.010792061139427683,-0.1619826839169703,0.513505478137899,-0.007493181026766225,0.1805287091983359,-0.25176889501034444,0.03957263851502272
51,101.682,-0.06424244515233367,0.16079877655547825,-0.01083430236178928,-0.14979426677112717,0.49540092440761047,-0.00457573964796703,0.17457776434867897,-0.2757027326322876,0.04542628360989427
52,101.689,-0.06524954199815261,0.16419790073774984,-0.010854510276320466,-0.1379476891775185,0.4757774133855502,-0.0011979502180937689,0.1705692996661695,-0.2960233343612062,0.05298476340929913
53,101.696,-0.06617446442359282,0.16745527527280027,-0.010849278972549756,-0.12631586094806715,0.4549010251996243,0.0026926084382956766,0.16832109553775662,-0.3122049942557747,0.06036568628953249
54,101.702,-0.06690271152047089,0.1701285232790681,-0.010821956051093757,-0.11643317134461498,0.4361816435562885,0.006415032047037406,0.16759686501118418,-0.32407690436523057,0.06616150389065437
55,101.709,-0.0676774008873903,0.17310301058985073,-0.010760748053679423,-0.1049066477750593,0.41367187380957005,0.011072967214188288,0.16822550536423722,-0.3317395859522702,0.06954626779335756
56,101.716,-0.06837110804416621,0.1759185598132231,-0.01066644934592575,-0.0932953970183199,0.39077076144073897,0.01586952071546778,0.17006537033904787,-0.33547857341221954,0.07020011425456192
57,101.723,-0.06898297483288048,0.17857332555924904,-0.010538741449617951,-0.08152368547134414,0.3677337374232703,0.020618449658162792,0.17290049020215464,-0.33569933771229227,0.06815873823523165
58,101.729,-0.06944129142637041,0.18072071385528293,-0.010403395178231026,-0.07124851235863014,0.3480623612546699,0.024496974137476996,0.1763581969374773,-0.33294136931133217,0.06367440489771244
59,101.736,-0.06989723751833732,0.18307775712572213,-0.010217406226195038,-0.05902179963182091,0.325378573156053,0.02864272644419613,0.17986400874658093,-0.3279451020000643,0.05711104773511968
60,101.743,-0.07026683498522189,0.18527737082495127,-0.010004171922333431,-0.04657747662105352,0.30308248376738345,0.03228136037348621,0.1826982179285764,-0.3216458647331185,0.048899638287553324
61,101.75,-0.07054880201119576,0.1873224611085051,-0.009767575778865223,-0.03398453079999568,0.28122902581900805,0.035317537760239076,0.18419409701074235,-0.31504914611184814,0.039558627619493546
62,101.756,-0.07072021740887707,0.1889547496786738,-0.00954955568771599,-0.023153935093771637,0.26286716423720546,0.037355825956169125,0.1839437042507701,-0.30908045240215065,0.029723889717550696
63,101.763,-0.0708383486074236,0.1907211113761214,-0.009282074932414482,-0.01059783591949806,0.24180760646175256,0.039067246987063986,0.1818750928851269,-0.3044844762195458,0.02013793235198201
64,101.77,-0.07086927629153417,0.19234093474696962,-0.00900479400540736,0.0017613547450410442,0.22099907092406043,0.040155875015075095,0.1782068242558034,-0.3017669825273108,0.011578971935634444
65,101.777,-0.07081471617870932,0.1938154951772221,-0.008721743238532361,0.013827248919188729,0.20030390914777568,0.04071577266343816,0.1733299732712118,-0.30118136014307756,0.004733505482754966
66,101.783,-0.07070165741227931,0.19496401466186844,-0.008477025592976506,0.02385900655748273,0.18253591906765934,0.040856775855177385,0.1676548903432275,-0.3027622250810874,5.926920718212103e-05
67,101.79,-0.07049510558887265,0.19616859108253312,-0.00819129719903787,0.035155800130090814,0.1616287725505739,0.040779908127231874,0.16147435424663215,-0.30636223979210736,-0.002298791162632312
68,101.797,-0.07021100639424499,0.19722574866148818,-0.007906415380572417,0.04601539833506083,0.14041625000841076,0.040614897148718666,0.1549173130690394,-0.31165927890594913,-0.002508762269067525
69,101.804,-0.06985250778127922,0.198133002517518,-0.007622529595340049,0.05641277679794626,0.11879913742849521,0.04049532720332862,0.1480076981042242,-0.31814986896528696,-0.0009748780709047081
70,101.81,-0.06948854733820817,0.1987890176690115,-0.007379485351092042,0.06490737089239859,0.099872579735999,0.04051942087933747,0.1407281459217517,-0.3251740555313723,0.0017938351394533511
71,101.817,-0.0690013080518942,0.19940917842108455,-0.007094991145243906,0.07430385376891913,0.07731620657082247,0.04076463793452259,0.1330360236259647,-0.33200021368408605,0.005350502199726685
72,101.824,-0.06845019429802657,0.19986990974456365,-0.006807855690542037,0.08315721876457638,0.054321314423109696,0.041274063408809764,0.12490454281622164,-0.3379501959926231,0.009491481098394183
73,101.831,-0.0678391045878044,0.2001684112847,-0.006516071050845732,0.09143984129877664,0.03096483990150416,0.04209297650436074,0.11640758530075855,-0.3425348253693782,0.014367346345968009
74,101.837,-0.0672706830354727,0.20029346660077296,-0.006260445307346664,0.09803400947844969,0.010720265456145715,0.04311560466199231,0.10773175482975857,-0.34558920085628425,0.020392337393519443
75,101.844,-0.06655960813798528,0.2002852621870358,-0.005952828302033503,0.10513024694679483,-0.013064383666771744,0.04477496828474082,0.09901534224517032,-0.34737058001977583,0.027952805159185374
76,101.851,-0.06580097017533508,0.2001102111086427,-0.00563159129238047,0.11162345666739243,-0.03695021015979179,0.04700703447320297,0.09016269279353009,-0.3485369781314489,0.03707788286404539
77,101.858,-0.06499905682926793,0.19976764540353767,-0.0052924148953885876,0.11749464220877238,-0.06092570558443163,0.04990050752440846,0.08089282394768302,-0.3499830618304344,0.04722272805386423
78,101.864,-0.06428068741125584,0.19934008105610584,-0.004983790369734788,0.1219618304619168,-0.08159574355950486,0.05297433436018736,0.07094931899084184,-0.35260269970459335,0.05725830729047808
79,101.871,-0.0634111996814816,0.19868366015702726,-0.004598199919788936,0.12646323518819363,-0.1059530847489093,0.05719436562448685,0.060197977596758066,-0.35704232074979175,0.06569124412339604
80,101.878,-0.06251288696065103,0.19785543329567898,-0.0041814154945763755,0.1301975421917847,-0.13068316135043564,0.061886898721873786,0.04860011942598794,-0.3634622523571937,0.0710245295719633
81,101.885,-0.06159129486392855,0.19685238484669396,-0.0037310042630796527,0.13311448544302237,-0.15590210978793898,0.06680202456281213,0.03638428987748313,-0.3712854789558966,0.07217642782312321
82,101.891,-0.060787230526474605,0.19585075066893548,-0.0033177441434832635,0.1349069603749488,-0.17797594946487083,0.07095134863597896,0.024542901770576997,-0.3790162610855044,0.06886133985379939
83,101.898,-0.05983813475419685,0.19451321041912695,-0.0028054012469733514,0.1362632602761954,-0.20417840762378617,0.0754323360813313,0.014972555342661429,-0.384385779044693,0.06169110437998189
84,101.905,-0.05888132040090767,0.19299155218091552,-0.0022637373837012162,0.13711226923480535,-0.2305810890077435,0.07932876771059676,0.009763107516122768,-0.384849714477952,0.0518304529091364
85,101.912,-0.057919113475718154,0.19128583040318614,-0.0016973538722433212,0.13780399510485927,-0.25676799034315484,0.08249509270582904,0.01039015204472739,-0.37809908150356913,0.040419630896386935
86,101.918,-0.05708983072792783,0.18967986279721216,-0.0011963299290075103,0.13862358749190393,-0.2785545449814862,0.08451288837276826,0.017468236125362392,-0.36243768481760097,0.028166334305428302
87,101.925,-0.05611368017149923,0.18764593418142536,-0.0005995259467508142,0.1402765714880629,-0.30256791667265176,0.08600253512936924,0.030691037608311673,-0.33718587066179834,0.015234149960800695
88,101.932,-0.05512221553782604,0.18545103699224036,4.477484529984838e-06,0.1429990381326445,-0.3245455659511904,0.08656987380787858,0.048627344585102164,-0.30312742340827253,0.0012951200027713579
89,101.939,-0.05410713428556489,0.183111234654532,0.0006089038900322229,0.14702417679949448,-0.34396938768065105,0.08612338490727375,0.06864405993137487,-0.26278074617887254,-0.014303462027400488
90,101.945,-0.05321122739550682,0.1810047860965918,0.0011215350669598896,0.15161145321985187,-0.358180131632721,0.08475367406860863,0.08727994471027888,-0.22025012070123537,-0.03225374961521161
91,101.952,-0.05212732456473214,0.178449377149817,0.0017045740442288113,0.15807506985840755,-0.3719367103024108,0.08182889086524996,0.1010359033127045,-0.1805443451438794,-0.05295907472502347
92,101.959,-0.05099577641103229,0.17580629082752666,0.002261858965473251,0.16522440262703234,-0.38323081035143197,0.07739537234733333,0.10725811200546297,-0.14850642431250477,-0.07621037422509729
93,101.966,-0.04981373799034986,0.1730904909125254,0.0027823472461968673,0.17250086042553547,-0.3927120225070939,0.07131556500246694,0.10473965914291129,-0.12772631151105554,-0.10092328638492273
94,101.972,-0.04876120419351878,0.1707123700670931,0.0031902909249855835,0.17834373851814467,-0.39999492597030345,0.06466566126043333,0.09386292490665261,-0.11982351312186412,-0.12511053563154417
95,101.979,-0.047492347178155196,0.16788307816303513,0.0036103625323900103,0.18418683729976307,-0.40837418947425536,0.05535479799788857,0.07637429114030751,-0.12430422538636124,-0.14615912795790373
96,101.986,-0.04618725718770561,0.16499283952765964,0.003960916631047343,0.18869601711413697,-0.41740827777529566,0.044803515904134866,0.0549995306867376,-0.13890166918616534,-0.16124982686200087
97,101.993,-0.04485581252508217,0.16203506066429466,0.0042350117862896336,0.19171674363591812,-0.4276713974729533,0.0335093855937654,0.03300857814859685,-0.1601117465695025,-0.1678018242518372
98,101.999,-0.04370138993313613,0.15943868331933306,0.004406787044253608,0.19309078701274626,-0.4377877175142134,0.023749033727557357,0.0136958988076212,-0.18374743882203465,-0.16395781049287417
99,102.006,-0.04234813015158988,0.1563274049000022,0.004535427250638219,0.19355486485733592,-0.4511489737225469,0.01300531095373376,-0.00017510731586168265,-0.20552940636024913,-0.1490578552271342
100,102.013,-0.040994085444842315,0.1531180350011365,0.004593667346300896,0.193315051355977,-0.46581385452414076,0.003634716378447672,-0.00681179883918127,-0.2217282140615599,-0.1239520651630206
