,Time,Position X,Position Y,Position Z,Velocity X,Velocity Y,Velocity Z,Filtered Acc X,Filtered Acc Y,Filtered Axx Z
0,312.869,0.0,0.0,0.0,0.0,0.0,0.0,0.0006634967187413138,0.0012370562228368382,0.00010492027000733392
1,312.876,4.994929041450542e-07,1.5065492864199263e-06,3.034581241570022e-07,0.00014271225832821526,0.0004304426532660239,8.670232118835701e-05,0.0034943890986602073,0.011303782414187506,0.0024211300905424425
2,312.883,2.705132325927782e-06,1.1993890561642038e-05,2.9850838512946823e-06,0.0004874704336092566,0.002565940568223867,0.0006794764579932899,0.006550053783925879,0.05091341320471301,0.014849195564701977
3,312.89,6.648047193100691e-06,5.439380936755931e-05,1.5436504745045594e-05,0.0006390766712964838,0.00954832194774384,0.0028780723687901427,-0.00213304411083615,0.15251651530633334,0.04920634432172441
4,312.896,6.441330719082012e-06,0.00015556976079818895,4.671865168312959e-05,-0.0007079821626357146,0.02417699519563834,0.0075493099438547345,-0.0436542136488054,0.34471999419910937,0.10957154534301965
5,312.903,-1.9844610755224707e-05,0.00044199190767211496,0.0001345572177046519,-0.006802286830017981,0.057657903911139174,0.017547423205133708,-0.13390182281268936,0.6307378755839144,0.18172097442008078
6,312.91,-0.00011537424441375159,0.001038824574649968,0.0003075904528910683,-0.020491894215255907,0.11286571522526845,0.03189064399094993,-0.26494145147358267,0.9777278467019053,0.23616516219730116
7,312.917,-0.0003389582302939813,0.002105490942592059,0.0005884591084106263,-0.04338924460813996,0.19189610418901445,0.04835754330094669,-0.40216710367022657,1.3248026945803963,0.24359381505993064
8,312.923,-0.000678982268762452,0.003515151212644301,0.0009168092950195888,-0.06995210154747575,0.2779906524928225,0.06109251890151818,-0.5007187591272614,1.6015975305524455,0.18927488799737188
9,312.93,-0.0012919393296795287,0.005863380749832546,0.001376401956741774,-0.10517848728584961,0.3929320724176253,0.07021967016186953,-0.5255931455015563,1.7471918820173233,0.07664237253050094
10,312.937,-0.002147125630581138,0.009031118367721575,0.001867918049696984,-0.13916045582872122,0.5121358184071646,0.07021349925380439,-0.46446297655693985,1.725779330358365,-0.07682216038772408
11,312.944,-0.0032165735127968114,0.013007964704894844,0.002320638032009776,-0.1663960819469672,0.6241059922129574,0.0591350671211867,-0.3290401526819373,1.5364435724885448,-0.24594517846935696
12,312.95,-0.004256857291075235,0.016995296540501678,0.002618039376535823,-0.18036517748080358,0.7050046196622328,0.039998714387961404,-0.14577695386997783,1.213344494780626,-0.4045097928448437
13,312.957,-0.005530252862013224,0.022174070154469015,0.002785716717122476,-0.18346212850121907,0.7746449843273778,0.00790909720819103,0.055548063403864964,0.8156100459820265,-0.5304131473392573
14,312.964,-0.006777991711136253,0.027743939552649168,0.002704269475522321,-0.1730346855336774,0.8167462722943862,-0.031179737665361494,0.2482528695646298,0.41100040908026947,-0.6084302431450305
15,312.971,-0.007910065736477786,0.03351769218795456,0.002337090237412016,-0.15041503599224393,0.83289733779169,-0.07372861608036504,0.4107649409857124,0.05955682933279578,-0.6312206472485329
16,312.977,-0.008729754226037246,0.03850286619094151,0.0017861239728138379,-0.12281446052885975,0.8288273298784342,-0.10992680545322392,0.5273935352698178,-0.19789859786995728,-0.5991753722222334
17,312.984,-0.009455303924722734,0.04423952736591297,0.0008822584886613185,-0.0844854533811316,0.8102187201122386,-0.14832047573302565,0.5893124651832498,-0.3442585758316277,-0.5194145723496141
18,312.991,-0.009904310552170371,0.049823581726786456,-0.0002669385074937895,-0.04380215446095885,0.7852253829933328,-0.18002152316819914,0.5959852349966918,-0.3839160263556041,-0.4041874858791197
19,312.998,-0.010072520562987868,0.05523364380529805,-0.0016079110232605936,-0.0042578486297199306,0.7605066394374471,-0.2031134813363283,0.5561281874902553,-0.33625836131188963,-0.2685909179332398
20,313.004,-0.010005970880778795,0.059746826409142015,-0.0028616170324274096,0.026441076032638306,0.7438875618366902,-0.2147885217172816,0.48734485247791776,-0.22863306782641696,-0.12825001418586832
21,313.011,-0.009712537474811048,0.06491567741814307,-0.004380348049710169,0.057397039958086725,0.7329270121625544,-0.21913462607748238,0.4145493847539984,-0.09069979519810387,0.0016273547747934912
22,313.018,-0.00921708977580959,0.0700413577352993,-0.005901262916518136,0.08415944547194965,0.731553078464358,-0.21541247872801195,0.36516658098823124,0.0506705818375915,0.10681647377880468
23,313.025,-0.008540933532214596,0.07518937998693902,-0.007375092348835763,0.10902805269791079,0.7393104220030782,-0.2056816447910092,0.35937404708246906,0.17533767462146221,0.17668892997406566
24,313.031,-0.007819741705674683,0.0796645478415754,-0.008575238828784358,0.13136922281424554,0.7524121962019268,-0.19436718185661245,0.400014399064723,0.269998711021139,0.20789577986883784
25,313.038,-0.006795725627084222,0.08500283957625354,-0.009886106486268077,0.16120679963996296,0.7728140137050239,-0.18016643456703957,0.4692959107963287,0.3244031198962941,0.20583942720457643
26,313.045,-0.005546694738249262,0.09049085241171996,-0.011100605905945905,0.1956591685983423,0.7951896535699747,-0.16683339962637783,0.5344652092702944,0.3275055299902572,0.18261519842926002
27,313.052,-0.004045696262415792,0.09612864717728295,-0.012228155453662747,0.23319753878234248,0.815608850875443,-0.15532361400677547,0.5592057817401316,0.2674026571059236,0.15271951597646466
28,313.058,-0.002551657673040739,0.10105785839746252,-0.013135246847594415,0.2648153243450152,0.8274615558588,-0.14704018397186766,0.5154998368221477,0.1354771908684167,0.1288387475469856
29,313.065,-0.0005889659118747527,0.1068582003964998,-0.01413473134636662,0.2959537502734374,0.8297790152935262,-0.13852681567712993,0.39171038505790157,-0.06795859205392282,0.11919610037273172
30,313.072,0.0015532030182231552,0.11261883815477887,-0.015074902687395697,0.31609451546838463,0.8161174870707452,-0.13009356747384268,0.19508575240080084,-0.3300666028836575,0.12650446879734942
31,313.079,0.0037831708570345303,0.11821680653791607,-0.015952562636911888,0.32103915276298156,0.7833020509673101,-0.12066641810203298,-0.05102498621245197,-0.6260028894189165,0.14815316139099843
32,313.085,0.005677220744437068,0.12277990446200579,-0.01664782903110389,0.31031080970749764,0.7377305904030789,-0.11108904662972319,-0.3136371921914664,-0.9229956834693908,0.17738687087808402
33,313.092,0.00774462517639426,0.12769082407954807,-0.01737933581012732,0.28037617085127786,0.6653893003222858,-0.09791289023396477,-0.5585009955600928,-1.18464964118979,0.20649713773557576
34,313.099,0.009549887627749234,0.13204116434264823,-0.018012274388973758,0.23541310096406065,0.5775650605625838,-0.08292670372203127,-0.7514867572748296,-1.3740875352492072,0.230121643890676
35,313.106,0.011006376061647533,0.13574416886524915,-0.01853644586417236,0.18072645157801298,0.4804362316083498,-0.06683657490603395,-0.8417950430780966,-1.4557365113828407,0.23866021961115524
36,313.112,0.011949627223419957,0.1383754782971007,-0.018898065654644677,0.13369060234462735,0.3966669123379807,-0.05370335525082967,-0.7569788920632291,-1.3916279222742232,0.20774501408712
37,313.119,0.01273976679597618,0.14084720397603695,-0.019235610975810485,0.09206356124270387,0.30954042450044106,-0.042738165082189486,-0.45581449964818926,-1.1467804270886313,0.11172304857975408
38,313.126,0.013329976598225757,0.14278936748208934,-0.019526946890469087,0.07656781082985264,0.2453634343757779,-0.04050066767802814,0.0043497016950221875,-0.7230000680750284,-0.04653412345014678
39,313.133,0.013923926510081326,0.1443973746380329,-0.019843954586768266,0.09313216398590268,0.21406718160776647,-0.050072959835958615,0.47824856889652834,-0.1888083991527947,-0.23235220537260215
40,313.139,0.014597094378093808,0.1456949779984968,-0.020200608433017544,0.13125712535051967,0.21846727187813314,-0.06881165557989988,0.81763947185252,0.3383698453940578,-0.4045861899629368
41,313.146,0.0157275557223465,0.147354306984954,-0.020795163629347385,0.1917318301500181,0.25562672425216104,-0.10106125765707633,0.9442758698348692,0.7442614703530942,-0.5349978700416347
42,313.153,0.01728679913686927,0.14934855483167805,-0.02164016602443259,0.25376628828474085,0.31415837481144654,-0.1403679980813811,0.8630824936860483,0.9610434738646025,-0.6101941439569325
43,313.16,0.019243050214696727,0.1517807599176516,-0.02277141088176739,0.30516259109413224,0.3807573640376467,-0.18284481829975993,0.6343358852231518,0.9793013570454019,-0.6273573489687423
44,313.166,0.021159767700180247,0.15422542417472002,-0.023975909656447865,0.3337432374033763,0.434130721655652,-0.21865477326228458,0.33713572874554565,0.8348879131014229,-0.5898423730801707
45,313.173,0.023541355831573837,0.1574352212544269,-0.02563781714581098,0.3467105144228783,0.4829541582599501,-0.2561759379839805,0.04066263168167832,0.5875706548604981,-0.5033273411055847
46,313.18,0.025947915317721854,0.16092277709459116,-0.027536533925651144,0.34087791019034935,0.513490367500549,-0.28631457054139275,-0.2105940916756558,0.3020941350110133,-0.37475415191600964
47,313.187,0.028261025723174283,0.16455769124156422,-0.029611511171628215,0.32001077708130066,0.5250565316338661,-0.3065360711659177,-0.397364592600066,0.03488315323752638,-0.21439419201418083
48,313.193,0.030100309592274867,0.16769576337315512,-0.031472978033420584,0.2930838459551085,0.5209675122346841,-0.3139528827677878,-0.5178963485748407,-0.17387113245575309,-0.03770724262133007
49,313.2,0.03202006159450054,0.17128511504416166,-0.03365888078150067,0.2554167261089779,0.504561536623599,-0.3105907595403631,-0.5795257315181473,-0.3041128481251583,0.13566185876510872
50,313.207,0.033667198911619775,0.17473766816292413,-0.03578246111683634,0.21519393592475186,0.481882211593548,-0.29614647912653674,-0.5923551622542947,-0.3566435928040606,0.28516862474254
51,313.214,0.03503457457882129,0.17802591897483305,-0.037773978562250995,0.1754848261325436,0.4576180203797604,-0.2728585052772431,-0.5645597822601754,-0.3502875264953137,0.3933206467292819
52,313.22,0.03599353254343534,0.18071291181101048,-0.039336761891463116,0.14416782873728046,0.43804625834177685,-0.248069271124309,-0.4999218839259882,-0.31496724239076923,0.44927881903513056
53,313.227,0.03689475209757145,0.18370746768374088,-0.04096509187363598,0.11332347244637085,0.4175411338732408,-0.2171678666428115,-0.3987206929009036,-0.28244441103355866,0.45102584250215955
54,313.234,0.0376087570059351,0.1865628653470098,-0.04238239297408642,0.09067792994309806,0.3982867699173004,-0.1877753049141686,-0.26105150259199783,-0.27852664886462075,0.40531906423013553
55,313.241,0.03820129961347357,0.18927906971707853,-0.043608990466102025,0.07861995792491498,0.37777162153034943,-0.16268112137575436,-0.09025448490990746,-0.3191770489012915,0.3257936730711944
56,313.247,0.038674348703186055,0.19148134923273827,-0.044536023634982484,0.07906307197849417,0.3563215503527224,-0.14632993491625615,0.10531617106427127,-0.4099224627404556,0.22999199139866816
57,313.254,0.03927800809397525,0.19386067714333613,-0.04551638381651212,0.09341103967543751,0.32348642410332323,-0.1337729740920119,0.3127082656170503,-0.5467206970214176,0.13585190969280053
58,313.261,0.04003144634070723,0.19597318004703346,-0.04642946811299784,0.12185703081926094,0.2800858340954856,-0.1271082534751503,0.5160585447704523,-0.7177445968005326,0.05832305224940389
59,313.268,0.04103032906499076,0.19773868648710155,-0.04731139919293378,0.16353803326386113,0.22434457735628044,-0.12487205507983987,0.6983069971222975,-0.9062629240324296,0.006828026583458391
60,313.274,0.04214758095639138,0.19890823665690624,-0.04806142874546748,0.20887926386790015,0.16550547924341705,-0.12513779576353487,0.8428659349806641,-1.093709819380882,-0.015860696037136465
61,313.281,0.04382340711118875,0.19978380446801397,-0.048940851746518986,0.26992820893100516,0.08465675250147095,-0.12612591882242843,0.9357797526194092,-1.26179753654271,-0.012928021207731727
62,313.288,0.04594163757572334,0.20005751272316044,-0.04982419612729976,0.3352804952213024,-0.00645439388824641,-0.1262581899718996,0.9682427012475516,-1.3927028393582566,0.009074334475591719
63,313.295,0.048517452491208785,0.1996689037885747,-0.05070144579917214,0.4006666234882996,-0.10457673027903513,-0.12438457342003086,0.9367657301142726,-1.4660667970100272,0.045513013377065696
64,313.301,0.051078039992634196,0.19878362646242723,-0.05143482967328642,0.4528625436575147,-0.19051571177150606,-0.12007671795254399,0.8374018048224068,-1.4550456281597897,0.1009133220690216
65,313.308,0.05442778621845167,0.19711562500920762,-0.052240563657424605,0.5042078065753657,-0.2860561320051793,-0.11013299180105819,0.6585295396607265,-1.3285005291811107,0.18879464290456233
66,313.315,0.05808243015052202,0.19482614614970148,-0.052951066345564166,0.5399761740154172,-0.36808068499610863,-0.09286777623867054,0.38357286577774075,-1.0612642293062629,0.314223077938665
67,313.322,0.0619093084184466,0.19204427374336708,-0.05350910737370863,0.5534176168193957,-0.42674000252743743,-0.06657251751677583,0.008040195737190723,-0.6477602600901272,0.45188268329408215
68,313.328,0.06519168543854079,0.1894163129191714,-0.053820269921389025,0.5407080565504728,-0.4492469388752375,-0.03714833171051106,-0.44004501794058004,-0.11726266985726547,0.5482612940547247
69,313.335,0.06881606685601256,0.18631247264586917,-0.05394805153016364,0.49482949129786474,-0.4375645677819105,0.0006393006320749295,-0.8966154625227583,0.4576256187110279,0.5526718873668905
70,313.342,0.07201819605980418,0.18342165752747855,-0.05382327320036986,0.4200645669276581,-0.38838260890053555,0.03501165073755154,-1.2816418386862096,0.9752784057837149,0.44875790350976813
71,313.349,0.07462126126881832,0.1809808971589604,-0.05349293016925737,0.3236683499329923,-0.3089774963898613,0.059372072437377306,-1.5268377424317612,1.3381696119423765,0.2609768668409155
72,313.355,0.07628778679818035,0.1793760277652316,-0.053110309178094485,0.2318401598516962,-0.2259789681838505,0.06816825794964324,-1.5944520653638898,1.4829952168766558,0.03801023246496115
73,313.362,0.07754087220991872,0.17813992364556983,-0.05264892140354621,0.12618424350186574,-0.12719363743354242,0.06365682049262539,-1.4838065317471067,1.395090593706323,-0.16944983014363904
74,313.369,0.07809839113749628,0.1775501304865237,-0.052262534789032394,0.0331068786630387,-0.041318693722372,0.046739355082671935,-1.227979125034204,1.106854331744674,-0.3234362773138039
75,313.376,0.07807652599680844,0.17747611062138144,-0.052022669923450185,-0.03935406171675454,0.020170160824421288,0.021793463655608955,-0.8831521810643508,0.6846080082344996,-0.4033560065590995
76,313.382,0.07771710568014091,0.17767611244749493,-0.051963211318802466,-0.08045271050518378,0.04649711454642193,-0.001973928773130726,-0.5138131022972117,0.21025937671601644,-0.40451050676353345
77,313.389,0.0770708368466938,0.1779983924445036,-0.05206588060194794,-0.1041955276224294,0.0455828845988517,-0.027360152125554607,-0.17792791359444332,-0.23689523671392076,-0.335110737200096
78,313.396,0.07633016353270404,0.17821755589966776,-0.05232330366103755,-0.10742541923163643,0.017035245448007125,-0.04618929332856833,0.08382583244965958,-0.5948330628386184,-0.2134715645470501
79,313.403,0.07561857120871951,0.1781659373338944,-0.05268004845726756,-0.09588667333522853,-0.03178340709752371,-0.0557377913085028,0.2523526323500907,-0.8274861227721941,-0.06472152687349887
80,313.409,0.07509451102741331,0.17782043337253708,-0.053012822542933234,-0.07880005376765781,-0.0833845800221211,-0.05518690391391162,0.3284308009205646,-0.9264656318990361,0.0834464871332468
81,313.416,0.0746216706677087,0.17701654596457564,-0.0533643657224484,-0.056297191862134624,-0.14629753653813043,-0.045254004518921,0.32718443117797813,-0.906487561406801,0.20594604300799205
82,313.423,0.07429944212786159,0.17578786737136545,-0.05362203172132245,-0.03576810523697166,-0.20475349009309712,-0.028364852302182823,0.270925353658938,-0.7966119695943901,0.28611516667337156
83,313.43,0.07410349471501113,0.17418302002900313,-0.05374779213190533,-0.020216869863121552,-0.2537743220100999,-0.007566693578615939,0.1821559846993333,-0.6315976612455505,0.319833966197895
84,313.436,0.074005275426248,0.1725652102034127,-0.05373722698275778,-0.012522893058073858,-0.28549561985590866,0.011088409961149188,0.07936644498133735,-0.44662639576194924,0.31426308494776606
85,313.443,0.07392445241296762,0.17048026767947236,-0.0535879644481649,-0.01056939645059059,-0.3102022441266239,0.03155802849392648,-0.022451811762861724,-0.273194899574746,0.2821141119474213
86,313.45,0.07383437650916777,0.1682599985330216,-0.05330463377907652,-0.015166576063634526,-0.32416036914456947,0.04939359124555226,-0.11148586210539972,-0.13347156852701925,0.23752053106415125
87,313.457,0.07369288649445659,0.16597049590398533,-0.05290696818147728,-0.025259142425244838,-0.3299832391510396,0.06422515092557836,-0.1825585250226671,-0.036176287234588156,0.19459323663474973
88,313.463,0.07350423498142952,0.1639893696682888,-0.05248993161783811,-0.03762469525014138,-0.33039217274464816,0.07478703695348127,-0.23775329824139343,0.022276413386855855,0.16441097743945784
89,313.47,0.07317836864785802,0.16168561068924098,-0.05192846221782407,-0.055479971484506604,-0.32782467841140767,0.08563279162184413,-0.28245569214056954,0.05252688942264125,0.15157736191204949
90,313.477,0.07271731105430895,0.1594051423573162,-0.05129235944154025,-0.07625076953049086,-0.32373770214335307,0.09611085874630787,-0.3226962942633526,0.06654613808084914,0.15369849316125972
91,313.484,0.0721010513875496,0.1571558774857584,-0.05058152960596208,-0.09982342097205388,-0.31890940401555906,0.1069833799901667,-0.3640869873887093,0.0741251156905509,0.16306968364736532
92,313.49,0.07143375422764713,0.15525616915100093,-0.049910267319208196,-0.12260896566104187,-0.31432670756724285,0.11677071559339172,-0.410405990637399,0.08164321322551922,0.16960714289986858
93,313.497,0.07047062633320496,0.15307669972687535,-0.049052756905995205,-0.15257043275081034,-0.30837884218247685,0.12823225961014423,-0.4625138309631635,0.09164635150167334,0.16432206451825593
94,313.504,0.06928489302823594,0.1509414277794771,-0.048118355700432915,-0.1862105115258082,-0.30169885707372723,0.13873951340746155,-0.5175814185424221,0.10297333757941886,0.14180413693862137
95,313.511,0.06785097689471305,0.14885535611298775,-0.04711798225886405,-0.22347981233758474,-0.29432161906566545,0.14708146989772355,-0.5682503038602305,0.11196063967235878,0.10123667109196582
96,313.517,0.06640676095496516,0.1471094019590397,-0.04622248010218427,-0.25792550091397287,-0.28766309891975256,0.15141924899693993,-0.602577266429658,0.11436605856962265,0.04620678476831763
97,313.524,0.06445609448328214,0.14512236327174408,-0.04515897158281164,-0.29940777670934615,-0.28006224030716287,0.15244032796645166,-0.6059984244198792,0.10708304885338008,-0.016457905341427336
98,313.531,0.06221952327252021,0.14318548048189758,-0.044103260480001634,-0.3396125692221782,-0.2733328425057228,0.1491914156933333,-0.5653581117149536,0.08897626662380725,-0.0781983380711269
99,313.538,0.05971744368870276,0.14129012562144483,-0.04308394189118513,-0.3752673118680116,-0.26819711762324744,0.14204246682545923,-0.47343386387035824,0.06065178846335178,-0.13008449239504952
100,313.544,0.057394757066882546,0.13968838162941938,-0.04225764431006945,-0.398961562075698,-0.2657175463877429,0.13339006021439617,-0.3319465058378758,0.023630177872967003,-0.1640154843589465
101,313.551,0.05454391811626568,0.1378287676587151,-0.041364478644374134,-0.4155638523856819,-0.2656007309559596,0.12180012998408365,-0.15175705420912,-0.02022678959538379,-0.17365422315888904
102,313.558,0.05162268687038852,0.13595884308686274,-0.04055137084639516,-0.4190736464357677,-0.26866343243005186,0.1105163837240293,0.0495000857210216,-0.06900424893721693,-0.15509489125534703
