,Time,Position X,Position Y,Position Z,Velocity X,Velocity Y,Velocity Z,Filtered Acc X,Filtered Acc Y,Filtered Axx Z
0,84.3345,0.0,0.0,0.0,0.0,0.0,0.0,-0.0003467365308475333,0.0009247982164352924,5.9954527709025073e-05
1,84.3413,-3.5216124919381107e-07,9.307322007123828e-07,6.175108377183497e-08,-0.00010357683799820465,0.0002737447649154726,1.8162083462308774e-05,-0.002759704086675498,0.007285259871864891,0.00048475638311388743
2,84.348,-2.5376842883294556e-06,6.665433132803843e-06,4.503753766361629e-07,-0.0005488180990576943,0.0014381062595907074,9.784516813906899e-05,-0.010793123751815122,0.028157077259132992,0.0019407401346486688
3,84.3548,-1.0709052678144912e-05,2.790243355374914e-05,1.9313276675205637e-06,-0.0018545255450062542,0.004808070334806473,0.0003377290350623303,-0.028367201308186905,0.07291371699532331,0.005253773639867455
4,84.3615,-3.260576420742041e-05,8.414195751513815e-05,5.988469399630931e-06,-0.0046818062547684496,0.011979847265584972,0.0008733580491480468,-0.05769321595689588,0.14539008038276086,0.011050393219948483
5,84.3683,-8.214045166398209e-05,0.00020948416902078238,1.5397214346978045e-05,-0.009887219467753196,0.024885509059613384,0.0018939198765429467,-0.0984257325293204,0.24167205404617312,0.01955794330185187
6,84.375,-0.00017548598603847734,0.0004415108602829935,3.360437886217721e-05,-0.017977119151519737,0.044376189824679974,0.0035410546056100787,-0.14782506952763066,0.35161042888308525,0.030579668285909446
7,84.3818,-0.0003372942962372704,0.0008355041199100651,6.607983334997425e-05,-0.029613560318724978,0.07150418065389838,0.006010549655508998,-0.20117103987136484,0.46200286741330343,0.04348457113324562
8,84.3885,-0.0005856289430766332,0.0014270477808808139,0.00011743372087506476,-0.0445161850065128,0.1050760166509334,0.009318969008708463,-0.252454273862176,0.5598999823072328,0.05722136480078246
9,84.3953,-0.0009504661925592661,0.0022770323460497683,0.0001952827727604566,-0.06278888837053377,0.14491944369241444,0.013577810957540914,-0.2955743107023553,0.6350702687141291,0.07050834648530392
10,84.402,-0.0014395254102648543,0.0033928709415036434,0.0003030562958571693,-0.08319893781034687,0.1881667042045112,0.018593389966874728,-0.3256931018789549,0.681345633109687,0.08216231719509165
11,84.4088,-0.002080752872227235,0.004828664774945655,0.000449157448716182,-0.10539737453157516,0.23412559974912328,0.024377537344609942,-0.34007471657417876,0.6970376291671154,0.09131382572643149
12,84.4155,-0.0028615655837604596,0.006549370530817015,0.000633250303304105,-0.1276810468217987,0.27951790946658805,0.030575553577198794,-0.33822444518835143,0.6846720473537384,0.0973493874280732
13,84.4223,-0.0038045996569855242,0.008601414213502427,0.0008634981709610371,-0.14968191589094276,0.3240243501456525,0.03714440749824423,-0.32161799273427644,0.650149692125629,0.09966140210019966
14,84.429,-0.004875159608813798,0.010910105639003851,0.001134057049615958,-0.16988821898340542,0.36513726940752134,0.04361943687641874,-0.2934475257058865,0.6012983775523172,0.09743389450988478
15,84.4358,-0.0060929755661785195,0.013523101386867466,0.0014518928938891621,-0.18829294494748106,0.4033908917290211,0.049861693792193226,-0.2585406349114156,0.5459910014587723,0.08978171086042029
16,84.4425,-0.0074075142910969265,0.01633989314850907,0.001804256518186515,-0.20410667443143823,0.43744246995566244,0.055321477639930186,-0.22281806187814115,0.4905148610850512,0.07641023268872929
17,84.4493,-0.00884243772885802,0.019419850183707503,0.0021957247256514,-0.21792963079251457,0.46842724627938814,0.0598162304380049,-0.1917552532006619,0.43876980870334237,0.05839483500320602
18,84.456,-0.01034223042255805,0.022649773661353113,0.002607136874018339,-0.22976968075911466,0.4957290157030445,0.0629933660892699,-0.1686474606320015,0.39227666664737515,0.038314918263081865
19,84.4628,-0.01194122621039517,0.026104969359098784,0.0030420392001955805,-0.24052319801662161,0.5205050130459274,0.06491908278642014,-0.15386830095683482,0.3507964563891499,0.019440509315943974
20,84.4695,-0.01358565962667193,0.02966543851888985,0.0034796308975409383,-0.2503524486335206,0.5423216018178638,0.06570530448094751,-0.14532710846055558,0.31328501473419856,0.004491520800627126
21,84.4763,-0.015320359885488414,0.03342033432071144,0.00392634300966181,-0.25985350984203903,0.5620595163652227,0.06568061084875215,-0.13962542550486362,0.2786876756869636,-0.005232123656712999
22,84.483,-0.017091420481713703,0.03724390883655207,0.004364730950446862,-0.26882129500060115,0.5793060107498075,0.06518146102720178,-0.13334758705262803,0.24628336732705636,-0.009961642484757418
23,84.4898,-0.01894857573787725,0.041235567518994785,0.004805584158469583,-0.27740083916527947,0.5947112487924507,0.06448124721480612,-0.12396712720280603,0.21574519140445816,-0.01103892742851047
24,84.4965,-0.020832926748598643,0.04526446907505942,0.005235245110720499,-0.28509199985644756,0.6079459321232538,0.06377575345720417,-0.11014634304819262,0.18710917176146752,-0.010435801609757099
25,84.5033,-0.02279443428745671,0.04943791998573405,0.005666563205518727,-0.2918219821607699,0.6195396298401684,0.06308250971877588,-0.091696953092209,0.16060499089458996,-0.01035572426144649
26,84.51,-0.024767382706575934,0.05362152131384517,0.0060866742276031805,-0.29711784444116995,0.6292965875047111,0.06232376553014131,-0.0695053343410674,0.1363898723848021,-0.012739910086385881
27,84.5168,-0.026800803954036338,0.05792917070534403,0.006506911571829292,-0.30094722834144577,0.6376591158776111,0.06127545335992132,-0.04534422003625233,0.11441617947802665,-0.01870070509701586
28,84.5235,-0.028824498719568103,0.06222447663245366,0.006912293904667209,-0.3031407613699757,0.6445217578874065,0.05973419823357625,-0.02142536781139517,0.09447777041024137,-0.02821400656479236
29,84.5303,-0.030888262216202216,0.06662657828570966,0.007310727011045098,-0.30384850234608596,0.650214022482316,0.05745200952465468,0.00019904581349508056,0.07624265594242985,-0.04023260601059154
30,84.537,-0.032922026074523845,0.07099791913924801,0.007685390186634573,-0.30324518670430833,0.6546638442437478,0.054387744382496696,0.018165453931668414,0.05920675883332549,-0.053041449103357625
31,84.5438,-0.03497840341124177,0.07546118343025444,0.008041878768593743,-0.30157167703640336,0.6580609472290486,0.05046183854669608,0.03202586786063869,0.042677976203961306,-0.06470295770227522
32,84.5505,-0.036990781478533616,0.07987772833695841,0.008364760431808081,-0.2991381937974278,0.6603106667134118,0.045920747487506096,0.04204763401384781,0.025801887463474817,-0.07352462969081619
33,84.5573,-0.03901462661047584,0.08437162499308343,0.008659799711335464,-0.29611037442101706,0.661423643911911,0.040855511197039056,0.048761675047783594,0.007578138830191674,-0.07839018113137972
34,84.564,-0.04098741011767396,0.08880256248665357,0.008916222204201362,-0.29278022474303744,0.6612442646174673,0.03568851652418114,0.05260571654271022,-0.0130383171829349,-0.07888946783243228
35,84.5708,-0.04296624106603575,0.09329337294360177,0.009141418863382537,-0.28922887771523537,0.6595823403648529,0.03054579499957133,0.053905052344174545,-0.03680553885027398,-0.0753492532694941
36,84.5775,-0.04489229266271402,0.09770151345046635,0.009330213467303021,-0.2857118974130339,0.6562804975061465,0.02581080318568927,0.053149330786617,-0.06370021326109303,-0.06878053541518878
37,84.5843,-0.04682330240081376,0.10214650172737991,0.009491054761981525,-0.2822321432046726,0.6510689957040391,0.021495459955058683,0.05121425107941339,-0.09260134207931532,-0.06064374272715299
38,84.591,-0.04870320056020069,0.10648510827145669,0.009622629368839107,-0.27893148646348376,0.6440374353646142,0.017780542092009917,0.049255396456933845,-0.1214343618206662,-0.0524357192082186
39,84.5978,-0.0505888592466862,0.11083405348333812,0.00973246132679576,-0.2756740095606405,0.6350640975393239,0.014522974954004605,0.04844172152025142,-0.14769087538402992,-0.04526410507066326
40,84.6045,-0.05242505369581954,0.11505412485367283,0.009820430174132666,-0.2724437364497172,0.6246586995764487,0.011736382460016851,0.04988549828743748,-0.1690420501454995,-0.0395577917975163
41,84.6113,-0.05426580591232649,0.11926179629022096,0.009891785268019369,-0.26895397428775136,0.6128917229380065,0.00925040985960645,0.054778238653572106,-0.18386903385317385,-0.0350006366041895
42,84.618,-0.05605469383253922,0.12332684694789652,0.009946518175871189,-0.26504241980599635,0.6005562345779818,0.007087771588710087,0.06428670233135317,-0.1916144728849453,-0.03082853675823453
43,84.6248,-0.057840761086207886,0.1273670439182945,0.009988221476540394,-0.26027147833197245,0.5877369920099517,0.005177905078706455,0.07880172038135799,-0.19285580607741584,-0.02645151750278738
44,84.6315,-0.059565193943494944,0.1312628680453104,0.010017579083784393,-0.25448459846942273,0.5751955832170625,0.0035855597702362813,0.09734679360041096,-0.1888957724203559,-0.02201834302569424
45,84.6383,-0.06127117173414835,0.1351322809660499,0.010037362170391499,-0.24727357525228805,0.5628670405301242,0.002232995114208083,0.1189237148311848,-0.18085760582272017,-0.018547307234694013
46,84.645,-0.06289895458056476,0.1388649689180692,0.010048356059469493,-0.23863175203655143,0.5513681690286993,0.0010487628195241206,0.1441272476399256,-0.16915987778806704,-0.017499882939102568
47,84.6518,-0.06448567439040748,0.142577650045952,0.010051250959899699,-0.2280505449761249,0.5405968685841491,-0.0001973215165221333,0.17322064625407638,-0.15388923098154633,-0.019872246478677084
48,84.6585,-0.06597218506029272,0.1461678172889493,0.0100449658774376,-0.21568398334721442,0.5310948457419211,-0.0016788225020127339,0.20320870872423175,-0.13534559732571005,-0.025223591564470894
49,84.6653,-0.06738987214468542,0.1497509262935712,0.010027122041347092,-0.20128280618015115,0.5227607438530151,-0.0035693645834319137,0.22870640431181224,-0.11460789728398078,-0.031476891133783234
50,84.672,-0.06868636181255416,0.15323042335850845,0.009995797242334938,-0.18572903497498236,0.5158950964275298,-0.0057813216888597035,0.2447393470574889,-0.0943775353238604,-0.035853512532429146
51,84.6788,-0.06989345721926406,0.15671881461647352,0.009948317896868536,-0.16929902582213244,0.5101023323859779,-0.008183191683614598,0.24802379154665377,-0.07935703559165459,-0.0361825396769052
52,84.6855,-0.07097436452267895,0.16011946867090238,0.00988602454989127,-0.1533598707191813,0.5050182808749637,-0.010411837264797375,0.23715277202429236,-0.07539788241995674,-0.03165584934132035
53,84.6923,-0.07196619676131628,0.1635350985524768,0.009809045821186111,-0.13835549358598478,0.4995787431177595,-0.01222896529554866,0.21285330528039795,-0.08774284823086745,-0.022842824600273346
54,84.699,-0.07285017076417948,0.16685948006351334,0.009723358065524912,-0.12551734308979043,0.49277394674462394,-0.013349469230201657,0.17793087996228016,-0.11939032155136758,-0.011264519545161512
55,84.7058,-0.07366804904796616,0.17017749534799012,0.009631437671928374,-0.11503509331811572,0.48311290163113707,-0.013685940651139553,0.1364491212337041,-0.1703603942291068,0.0011731853353328077
56,84.7125,-0.07441355946939437,0.17336942672891775,0.009541263707581195,-0.1075053309885054,0.4697024359578822,-0.01323166064648884,0.09275149749356444,-0.23784465862411983,0.012654775439992017
57,84.7193,-0.07512830582540093,0.17650052932624868,0.009455180171699636,-0.10271418548406148,0.45121009266908146,-0.012087026377504978,0.050942877495228384,-0.31677129042141666,0.021674698736868694
58,84.726,-0.07580928318525627,0.17944469091049434,0.00937955864533662,-0.1005626383535038,0.4276441115840015,-0.01048656358162073,0.014548689430664936,-0.40056044053992695,0.027042252344694262
59,84.7328,-0.07649305400695991,0.18225261270791332,0.009314469983176511,-0.10054642685349512,0.3982152405982551,-0.008657160583122008,-0.014062479742560412,-0.4820600557485619,0.027824568174130232
60,84.7395,-0.07717201837814316,0.1848065775177094,0.009262096367128743,-0.10212950484271865,0.3641623145637032,-0.006976754654996148,-0.0341252901684099,-0.554486833108836,0.02332579508831141
61,84.7463,-0.07787560555555124,0.1871506211238161,0.009218793225882519,-0.10480790027735305,0.3252622754678496,-0.005759463358602217,-0.046204217168749326,-0.6121896537007749,0.013182783466103652
62,84.753,-0.07858856499264766,0.18919083051993757,0.009181389809534387,-0.10801581228889667,0.2837554547181141,-0.005405735551296009,-0.05144234665155181,-0.6512484975740092,-0.0024155601797890354
63,84.7598,-0.07933469357889905,0.19097059960613916,0.009141802736309155,-0.11143377190274042,0.23970604122365857,-0.006237521279657496,-0.05106791315848035,-0.6698662410282211,-0.022531069024154145
64,84.7665,-0.0800920174323824,0.1924293481370651,0.009092533494711596,-0.11463305003275497,0.19574128144112352,-0.008469715018132436,-0.04631584143865256,-0.6683898291199623,-0.04541532338278301
65,84.7733,-0.08088111660804367,0.19361104775451565,0.009022016676676207,-0.11745494280836874,0.15181742957309902,-0.01227052558047291,-0.038317388401739594,-0.6489591087089379,-0.06857726934866325
66,84.78,-0.0816753327201653,0.19448912570499005,0.008922461079477152,-0.11962449364602383,0.11029539146423094,-0.017447563135685205,-0.02772219858448048,-0.6149422481725996,-0.08900807782296367
67,84.7868,-0.08249356136297993,0.19510475891674142,0.008781974637114495,-0.12103098953480641,0.07077320022739414,-0.023871978735694688,-0.014460938511953137,-0.5703936099634705,-0.10367076765467083
68,84.7935,-0.08330588478322949,0.19545895851655773,0.008598487985214695,-0.12145361352494195,0.034958023598443515,-0.03090015615980862,0.0015965643407604914,-0.5197949356853698,-0.11026196270532111
69,84.8003,-0.08412941640676964,0.19558468327274314,0.008363633608312408,-0.12076156986927895,0.0020198458678667083,-0.0381746605761746,0.019158969064188007,-0.46807547189774207,-0.10791245184614125
70,84.807,-0.08493257528262087,0.19550040415205094,0.008085270946617498,-0.1189873482949322,-0.02717779234311319,-0.04491867127293749,0.03484707585444236,-0.42067990315774895,-0.09737044510837206
71,84.8138,-0.08573269954178095,0.19522443699286562,0.007759637508395419,-0.11634331616397232,-0.05398901918199897,-0.0508558693806381,0.04445181919188164,-0.38343311735540936,-0.08069594224708801
72,84.8205,-0.08650237904974532,0.19478068549927247,0.007403329355083354,-0.11341176084048653,-0.07847411323396702,-0.05550477339916135,0.0447826432738628,-0.36187575969234415,-0.0608133950744016
73,84.8273,-0.08726458854432004,0.1941652205659706,0.00701435873539959,-0.11076750226977897,-0.10254498479603436,-0.0588983500372673,0.03452304307487233,-0.36004947537693005,-0.040965578980322
74,84.834,-0.08800136268846688,0.1933967878131439,0.006612586451740582,-0.10916507807225945,-0.12683792649520093,-0.06103367493540543,0.01425361167965136,-0.3794104204897422,-0.024032194709346172
75,84.8408,-0.08874364533376973,0.19244381914685152,0.006193470030216278,-0.10915334701686474,-0.15344697535556592,-0.06223586080706647,-0.013901777933141707,-0.4186389481820985,-0.012023347183185018
76,84.8475,-0.08948168274435936,0.19131745423071142,0.00577450015299426,-0.11115632778617401,-0.18278135782083252,-0.06282977418467335,-0.047067534447430705,-0.4742788248790933,-0.00605495431683474
77,84.8543,-0.09025222075363087,0.1899593872387734,0.005345818311011827,-0.11547249847020845,-0.21665011039632945,-0.06325312051607244,-0.08238156039053997,-0.5415010608438626,-0.006641902090002978
78,84.861,-0.09104784608087936,0.1883805854406385,0.0049197646804393196,-0.12202759921557758,-0.25463400844926076,-0.06392706771435111,-0.1171510517810234,-0.6147018250254309,-0.013872572082380956
79,84.8678,-0.09190777475809457,0.18650137789281454,0.004480408470878014,-0.13089259996542696,-0.298074093852037,-0.06529534686253459,-0.14872497741559615,-0.6881381566912569,-0.027164381778873727
80,84.8745,-0.09282034452300593,0.1843452681530385,0.004035024971314866,-0.1415162850829432,-0.34554075384277494,-0.06765495151462281,-0.174652454104155,-0.7567132692341778,-0.04466030836901503
81,84.8813,-0.09382434926825808,0.18181719637493501,0.003562788055423716,-0.15377922822658469,-0.3980097691290196,-0.07123825904163124,-0.1931334853782203,-0.8169192474241542,-0.06280900873031518
82,84.888,-0.09489830295098643,0.17896513631268293,0.0030701297390941587,-0.16680396064710493,-0.45335144348236495,-0.07582392493713787,-0.20333012115567256,-0.8676420239601178,-0.07677540502913566
83,84.8948,-0.09607888018800588,0.17568081273181527,0.0025365470137452195,-0.1804246384763447,-0.5126260803024713,-0.08111217075376441,-0.20517652632162664,-0.9101023343885725,-0.08182783018933737
84,84.9015,-0.09733204508922084,0.17204202329973448,0.0019758727131132855,-0.1936544365134728,-0.5735797203194677,-0.08625329212156364,-0.19752913197368901,-0.9452831869665754,-0.07466425374009605
85,84.9083,-0.09869043358922867,0.1679252173939535,0.0013749732697023757,-0.20587159290068935,-0.6372455460869902,-0.09048183829345234,-0.16888358698321013,-0.9641601879683174,-0.05215683710701273
86,84.915,-0.10009777725583578,0.16344760111450313,0.0007620171035834211,-0.21423099414562813,-0.6993563283739588,-0.09249015159255003,-0.08557065123291481,-0.9264479224399428,-0.008974793693771518
87,84.9218,-0.10155390262157148,0.15850172947714983,0.00013859767406456172,-0.21404117224732494,-0.755311800259713,-0.09086850414833508,0.09126372379991626,-0.7517491918761734,0.05761068165261287
88,84.9285,-0.10293847049773228,0.1533177741748958,-0.0004487976571130115,-0.19926267138307163,-0.7921375436978562,-0.08447338575554783,0.35858334888063853,-0.3692002898810764,0.13705218130390487
89,84.9353,-0.10417860392032302,0.1479122360102512,-0.0009844978528844345,-0.16548245290841182,-0.7977266223744711,-0.07308549535373211,0.6545412527827571,0.20157457981769863,0.20448947970638975
90,84.942,-0.10511635261747157,0.14268166449384045,-0.001425984469045452,-0.11444253131524229,-0.7636380093910821,-0.05870155424666908,0.8990777190893542,0.8360585944246134,0.23334747412652718
91,84.9488,-0.10567437373927815,0.13773957468171621,-0.0017749471514240062,-0.049681328039330355,-0.6899178177015907,-0.043934528805657104,1.0432178383307815,1.3749318376188007,0.20954003350963768
92,84.9555,-0.10577334980175654,0.13345560026801376,-0.0020309894663317406,0.020136234762177352,-0.5888805147478511,-0.03249601295790219,1.0819791986648841,1.7005719217115631,0.13864026685959482
93,84.9623,-0.10539634632326624,0.12984420435664196,-0.0022312695285749994,0.09074714126440823,-0.47329475330293086,-0.02640988770189406,1.0357586299648451,1.7660361646064564,0.04389269189827078
94,84.969,-0.10457215123274825,0.12704192607160533,-0.0024082853107711987,0.15528124396502263,-0.3632062273056373,-0.026430644297010503,0.9286136331350915,1.5849803972551997,-0.04452450791518037
95,84.9758,-0.1033224464534224,0.12488913917800808,-0.0026048085233384382,0.21227898524778452,-0.26996638845709076,-0.03137030057560014,0.7808428636015615,1.2114365253664574,-0.10362395072619494
96,84.9825,-0.10174692250235201,0.12329336102845533,-0.002840204306380363,0.25802667178849903,-0.20638529797691751,-0.03889709734741454,0.611684231080028,0.72392672243943,-0.12548639852797686
97,84.9893,-0.09987303976298431,0.12199596657083273,-0.0031319002349817888,0.2931153103786027,-0.17520130720629265,-0.04689582282949603,0.4406820530864526,0.21133271797727293,-0.11440860315555702
98,84.996,-0.09782935620929153,0.12081854938496445,-0.0034674356690143765,0.31693948176894704,-0.17626650947106584,-0.05326400822508191,0.28450880743644197,-0.24375671855908923,-0.07943443849020382
99,85.0028,-0.09562446462637036,0.11952641652777982,-0.003841991958815444,0.3315580426197889,-0.20377256617156506,-0.056899606422317374,0.15392600168154066,-0.5811953982819689,-0.029603162262596745
100,85.0095,-0.09338010576314965,0.11801215701486553,-0.004223474566133739,0.338399826997412,-0.24824519887685154,-0.05697579874716572,0.05433305669313827,-0.7725199630114776,0.02728392199536586
