,Time,Position X,Position Y,Position Z,Velocity X,Velocity Y,Velocity Z,Filtered Acc X,Filtered Acc Y,Filtered Axx Z
0,312.869,0.0,0.0,0.0,0.0,0.0,0.0,-0.00015488220589434374,0.0012940190509442733,0.00012240715221240064
1,312.876,-1.6894499191653978e-07,1.3543279890122067e-06,1.2646796899886014e-07,-4.826999769079742e-05,0.0003869508540063533,3.6133705428513354e-05,-0.0012514520582793081,0.00997969693359447,0.0009303392838075
2,312.883,-1.2373818328846975e-06,9.852111352201041e-06,9.149910712134786e-07,-0.0002569976711570295,0.0020409872497601502,0.00018915860948978807,-0.004829776305450053,0.038210238197963195,0.003528002877922853
3,312.89,-5.004094203322587e-06,4.0683592199477095e-05,3.7195649043714943e-06,-0.0008192058632530272,0.006768007278026713,0.0006121481999833581,-0.011550018224518196,0.09951030357036121,0.008795692646273709
4,312.896,-1.258007415827329e-05,0.00010791378158218586,9.56297241070848e-06,-0.0017061207883851488,0.01564205584943587,0.0013356543021196701,-0.018596699398315524,0.20212340319551658,0.015796670771504276
5,312.903,-2.9302399834717454e-05,0.0002830089549205355,2.3326163276854476e-05,-0.003071686547738341,0.03438513653291399,0.002596685945347805,-0.021188716164512213,0.3439515469211235,0.02094316956212454
6,312.91,-5.5745392164704453e-05,0.00062625258992645,4.6339065186947025e-05,-0.004483454117966833,0.06368447346870579,0.00397842888610251,-0.019942777558842655,0.5096772788762652,0.019313564119428795
7,312.917,-9.252884214510684e-05,0.0012140077674487073,7.73306786227864e-05,-0.006026103019368825,0.1042455772531828,0.004876317809917176,-0.02500191088983879,0.6720602967128185,0.006846204254111194
8,312.923,-0.00013533703945990498,0.0019692571557627125,0.00010557813662250974,-0.008243296085495752,0.1475042188502835,0.00453950152327898,-0.050361679670863725,0.7983243095456607,-0.018294771863389524
9,312.93,-0.0002118003038157482,0.0032009284169328455,0.00012852514475001294,-0.013603350873300984,0.204401855769503,0.0020167865131458184,-0.10580217088830934,0.8593740575005736,-0.05520389660957405
10,312.937,-0.0003429924309160925,0.004835660550697719,0.00012396125611907749,-0.02388011401248489,0.262664468162984,-0.003320754693412162,-0.19360874311032752,0.8380925273005382,-0.10030402641217043
11,312.944,-0.0005704795163969874,0.006863107137353833,7.090439935818907e-05,-0.04111619612486722,0.3166059851669207,-0.011838347238259413,-0.3085601819811742,0.7334800281708774,-0.14785389397395718
12,312.95,-0.0008831871613995401,0.008876877720810115,-3.000533926091367e-05,-0.06311968554314015,0.35465087598832745,-0.021798232301599555,-0.43935031475237996,0.559686371553988,-0.19068798197712175
13,312.957,-0.001446432191878278,0.01146771381086031,-0.0002320750989936986,-0.0978074660220985,0.3855880068826283,-0.035935984764869165,-0.5712694608644155,0.3416591700436222,-0.22121188664728852
14,312.964,-0.0022825293485650515,0.014221034493930758,-0.0005381514719899852,-0.1410774358882375,0.40107504542265143,-0.05151440751972167,-0.6893902479223509,0.10955180967821666,-0.2326615492308836
15,312.971,-0.0034467442693925905,0.017028853820139883,-0.0009531771145124439,-0.1915553986336788,0.4011590477793827,-0.06706434748661036,-0.7812725237800934,-0.1071044221042972,-0.22038204777078887
16,312.977,-0.004739009035438449,0.019401316728493864,-0.001391116609372671,-0.23919952338363143,0.3896619216756601,-0.07891548413415131,-0.8381770249165061,-0.28368910758479643,-0.18244449162158413
17,312.984,-0.006616707161304402,0.022046669843175683,-0.001979779385762994,-0.297285655434829,0.36615325394717657,-0.08927388054867792,-0.854147849418942,-0.40123002465030505,-0.1193447873594925
18,312.991,-0.008899109310966087,0.02450817506047598,-0.0026230842956687164,-0.3548292444680435,0.33713395099526194,-0.09452752228139713,-0.8223701702972235,-0.4442400813315364,-0.0337187455555761
19,312.998,-0.011569601329465558,0.026766917203118253,-0.0032804619201452405,-0.4081684751026886,0.30822094690206936,-0.0932946561403327,-0.731654923013569,-0.39813303408859485,0.0696379910548344
20,313.004,-0.01413345458781062,0.028558950749836214,-0.003817912450680836,-0.4464492776749184,0.2891235686677317,-0.08585552070401034,-0.5695302446038812,-0.2509971729391699,0.1832222427758428
21,313.011,-0.017367069931891122,0.030552121462909112,-0.004361485055944792,-0.477440820633136,0.2803537779241182,-0.06945093794272342,-0.3334005788153718,-0.004508478651688547,0.29472115747588734
22,313.018,-0.02075440025343287,0.03255164545388342,-0.004765902178684968,-0.4903678426716739,0.29093879092991615,-0.04609681141246811,-0.04322496285084846,0.31290017512809787,0.3856954557531319
23,313.025,-0.02416135353088876,0.034703573255458246,-0.004989988255493892,-0.4830473794578843,0.32389772380530846,-0.017927781961464637,0.2565048207252611,0.6473500595994672,0.4350021452474527
24,313.031,-0.026991703347232006,0.03678693118246453,-0.0050215710324731455,-0.460402559318693,0.37055491852680345,0.007400189635097119,0.5132048538011463,0.9385532040455147,0.4259092973770529
25,313.038,-0.030070066917032682,0.03963052682598174,-0.004876239506591046,-0.4191298891951576,0.4419009796203891,0.0341231034740446,0.689264028422533,1.1400963739313734,0.3526560883248762
26,313.045,-0.03282843682034508,0.043008314730780206,-0.0045681461894729,-0.3689757974649646,0.5231812788927694,0.05390355855964847,0.7719628425609946,1.2279847393167722,0.22364250455676857
27,313.052,-0.03522628167141787,0.046962218253003486,-0.004156758816789827,-0.31612273141248665,0.6065054417416466,0.06363569077828869,0.7678979677037663,1.1996438261047264,0.05990072430566571
28,313.058,-0.03699396801395308,0.05080153345388042,-0.003779421826329242,-0.27310604943534994,0.6732662918900119,0.062143306042497355,0.694262300323162,1.0695935501885367,-0.11062768800881101
29,313.065,-0.038753339464016164,0.0557467445587178,-0.003388924836888058,-0.22957150772517299,0.7396511666339443,0.049427262369189706,0.5741056427168256,0.8645131090357056,-0.2598510519511305
30,313.072,-0.04023935600127224,0.061102400667795924,-0.00311794990800948,-0.1950046457762601,0.7905362931015693,0.027994145881777323,0.4329912018846351,0.6180122754909346,-0.364597415958679
31,313.079,-0.04151699682092246,0.06675422557918839,-0.003015051198977472,-0.17003558840925653,0.8242708244379832,0.001405485270203951,0.2944760158265454,0.36483482567845643,-0.4100565356690247
32,313.085,-0.042495656423479924,0.0717439817908835,-0.0030774253824221937,-0.15618427911143046,0.8389812461348694,-0.022196879751875596,0.17633747290783924,0.13518035779246373,-0.39220060692266756
33,313.092,-0.04355694190637743,0.07762718855473028,-0.0033181387950882084,-0.1470401445733553,0.8419349721058673,-0.04657838100979378,0.09007459115273314,-0.04912429318336432,-0.31814831106085123
34,313.099,-0.04457019795196079,0.08349370138354427,-0.00370688694617073,-0.14246158273596646,0.8342115504112194,-0.06449251929941871,0.04332065849595467,-0.17589565886498848,-0.20377561052332518
35,313.106,-0.04555745894498078,0.08928289628394134,-0.004191261501152199,-0.13961298669811603,0.8198441354153335,-0.07390021069518776,0.03967247190457909,-0.24269536998862917,-0.07031511641815497
36,313.112,-0.046385222033225725,0.09415790198709023,-0.004635658406476409,-0.13630804271554708,0.805157765626537,-0.07423209107884153,0.07266436016186417,-0.2565022761231583,0.05903432281883934
37,313.119,-0.04731581787367083,0.09973530102160075,-0.0051285757215960535,-0.12957648312572217,0.7883848156610439,-0.06660142752667073,0.12345793847718159,-0.23217341014165957,0.1632831440360965
38,313.126,-0.04818781643416723,0.10520325015924753,-0.005547812849077671,-0.11956596273223616,0.7738863665353202,-0.05318060889753567,0.16819605997023215,-0.19023526519107192,0.22772903732580588
39,313.133,-0.04898227356447201,0.11057910530049156,-0.005863124759685919,-0.10742178878325313,0.7620722452475919,-0.03690850841904228,0.18562139914386297,-0.15396619249965876,0.24635452487744425
40,313.139,-0.04959621846442781,0.11512521042155086,-0.006043228435952392,-0.09722651120103762,0.7532961284316043,-0.02312605033616185,0.16092159573433468,-0.1443387609739419,0.22211867384704784
41,313.146,-0.050246731434905975,0.12035995753717839,-0.0061585924750735075,-0.08863433750687501,0.7423459046037655,-0.009835103698419154,0.08940922771291729,-0.17469326111110042,0.16510971964783866
42,313.153,-0.050859105385293334,0.12550554518296783,-0.0061968623905795115,-0.08632964831796003,0.7278219941921682,-0.0010991578747169672,-0.022262686804063573,-0.24845722238987253,0.08940986869843498
43,313.16,-0.051485264418359766,0.13052719475222996,-0.006192615982247917,-0.09257293255803616,0.7069350255959888,0.0023124173980289078,-0.15963383210538412,-0.36007936382355193,0.009985520370453032
44,313.166,-0.05208174685295902,0.13469310402870305,-0.00618313602033278,-0.10625454564264895,0.6817013999015636,0.0008475699070314262,-0.30541159063248896,-0.4976252106078678,-0.05977647824102606
45,313.173,-0.05291537692719346,0.13932765056224392,-0.006197566765039818,-0.1319254755670204,0.6424547525377391,-0.004970639823324998,-0.4425045078270284,-0.6458160071604397,-0.10973560154600673
46,313.18,-0.05395873461799294,0.14365249283166406,-0.006261627370120182,-0.16617672180404708,0.5932144672957033,-0.013332390199623307,-0.5553969522464122,-0.7887873412088705,-0.13388189638483855
47,313.187,-0.05526461329972047,0.14760067551761358,-0.006386692222112956,-0.20693147297497838,0.5348377286890684,-0.022400424655429206,-0.6319824913207348,-0.912004282160202,-0.13031301088433725
48,313.193,-0.05662063076109158,0.150640805029815,-0.006541392596909287,-0.24507434748418166,0.47853877538283657,-0.02916636694359004,-0.6645144269059288,-1.0016275665171896,-0.09966502402709626
49,313.2,-0.05849355524868867,0.15374532238064265,-0.006762633484688536,-0.29004693468603293,0.40846618199585816,-0.03404531527900743,-0.6457506105014611,-1.03991984954169,-0.04248191082728174
50,313.207,-0.06066910225494252,0.15635942794160373,-0.00700118515429375,-0.33153792424319556,0.3384211211353443,-0.03411230460814768,-0.5630789536101509,-1.0008254132709005,0.0405301935409736
51,313.214,-0.06310547895302827,0.15850532188981917,-0.007218058996595062,-0.36456970378080955,0.274691435497197,-0.02785165033504013,-0.3992936503325204,-0.8559229779622146,0.14187239691996223
52,313.22,-0.06534099806775572,0.16002531626271774,-0.007351479020931682,-0.38060333445811345,0.2319733554665698,-0.016621691110287516,-0.14569812148311273,-0.5960876485148263,0.2398399861635913
53,313.227,-0.06800139901511267,0.16154728665879486,-0.007402749260816252,-0.37951122193521725,0.20287532913011236,0.00197305114315895,0.17751654565459046,-0.25167604351843553,0.3019131610399951
54,313.234,-0.0705746978666249,0.16295102990656382,-0.00731663247990889,-0.3557170213534691,0.19819417023215835,0.022631743401784095,0.5157215145751259,0.11529165426797344,0.299972651389337
55,313.241,-0.07290617533082028,0.1644050762321462,-0.0070951940928231285,-0.3104193969875917,0.2172476370767941,0.040636367194102685,0.8040133990030527,0.43982631872912925,0.22458754259872848
56,313.247,-0.07460960553131349,0.16580678373235327,-0.006823749368115508,-0.2573906698407655,0.2499881963233317,0.04984520770800533,0.998461695161723,0.6730429841208512,0.08842592322492776
57,313.254,-0.07616110305578797,0.16773197699543463,-0.006473801348759766,-0.185894337151627,0.3000670216995224,0.05013994067927809,1.084566008024741,0.7859910205350238,-0.07983895210190556
58,313.261,-0.07720383438507727,0.17001951825150205,-0.006161901745304942,-0.11202889978796123,0.35351619431927,0.03897423173632224,1.0674849650718823,0.771237204909939,-0.24547117471285437
59,313.268,-0.07774396627158549,0.17266412162258157,-0.005963894626726757,-0.042294496358384684,0.40208476885190675,0.01759923071500661,0.964209371499817,0.6437960205907298,-0.377284113687624
60,313.274,-0.07784188910776395,0.17517196617926065,-0.005931687952720642,0.009653550965720417,0.4338634167037935,-0.006863672713019485,0.8015328314562402,0.4363773941069516,-0.4542231943774573
61,313.281,-0.07760446645921674,0.17828428112512174,-0.006090467653029492,0.05818149147628917,0.4553694249701697,-0.03850195594661961,0.6123165320014741,0.19019475748291884,-0.4675502445958785
62,313.288,-0.07707223928948725,0.18148821024840409,-0.00646651904703473,0.09388341416060034,0.46003889596699193,-0.0689412994833716,0.42785002215997064,-0.054150892297591624,-0.4192923873129427
63,313.295,-0.07633105085673719,0.18467032548159998,-0.007037823469698649,0.11788470948212142,0.44913688494546944,-0.09428853556334586,0.27142169132028215,-0.2634764617796261,-0.31919297225592547
64,313.301,-0.07558605948461251,0.18730518226416995,-0.007647817963809524,0.13044574789393842,0.4291487092486448,-0.10904296247456789,0.15553479269400208,-0.41593243242034933,-0.18231797223213
65,313.308,-0.07464475291003313,0.19019898573782568,-0.008436345349253943,0.1384989876999812,0.3976522832238262,-0.11625057622367684,0.07909432722643159,-0.5017080323894946,-0.02767404482054926
66,313.315,-0.07366269478930428,0.19285966321900055,-0.009238557969357096,0.14208904679377587,0.36254128282559495,-0.11295302951991733,0.025501143158958503,-0.5212421493226576,0.12374724015978064
67,313.322,-0.07266880673703432,0.19527690330586348,-0.009984029015622575,0.14187896814029102,0.3280987419918927,-0.10003869798435314,-0.031621731986356406,-0.482232630798926,0.252508566885292
68,313.328,-0.07183052977730504,0.19716789174350677,-0.010531555002124502,0.1375466851041165,0.30223073722550287,-0.08246996418381364,-0.11563490972088307,-0.3970348311278069,0.34466218971429613
69,313.335,-0.07090989085621116,0.19920190955223135,-0.011020071033884124,0.12549300663680416,0.2789172081239643,-0.057106044890264426,-0.23554598625433307,-0.2821989862023247,0.39430923109362753
70,313.342,-0.07010555935181007,0.2011013292160018,-0.011323932863165142,0.10431599462048699,0.26377412438148523,-0.029711620618535863,-0.38144094218714086,-0.1589909568455995,0.4038204424794504
71,313.349,-0.06948436674271145,0.2029224454031145,-0.011437533379348894,0.0731676079789896,0.2565447862217729,-0.002745669719655796,-0.5260594825676397,-0.05163399545592727,0.3818257669472665
72,313.355,-0.06914749237661028,0.20445861628714548,-0.011390274793830448,0.03912384738753539,0.25551217511944146,0.01849853155906261,-0.6311063382883323,0.016534986031149054,0.3402761155718054
73,313.362,-0.06902842829780936,0.20625231534048297,-0.01118484479232316,-0.00510553915872794,0.2569732686909048,0.0401957545858352,-0.6575057346048203,0.026033608354506178,0.2918670300562585
74,313.369,-0.06921245383762807,0.2080497809603387,-0.01083861801046117,-0.04747318650372184,0.25658833698179007,0.058726183088948364,-0.5768650340634851,-0.03724849705945818,0.24801235217343615
75,313.376,-0.06965968818964234,0.20981977332915128,-0.010371666476351803,-0.08030805692987446,0.24912376839697842,0.074688540943287,-0.37977067236009454,-0.18022983462267075,0.21704693644214165
76,313.382,-0.07018199086114178,0.21126331248172875,-0.009886512195104604,-0.09379283356910936,0.23205594912654365,0.08702955280500692,-0.07858417321817884,-0.399914566382541,0.2024307262208128
77,313.389,-0.07081254885982893,0.21275776253590198,-0.009228789883164177,-0.08636659462708958,0.194929780636935,0.10089110774926682,0.2949457803787566,-0.6817470317482348,0.2014221970287895
78,313.396,-0.07129790062914289,0.21392007735544535,-0.008473648731758654,-0.05230533946251111,0.13716016780378862,0.11486350693787102,0.6974203374976443,-1.0013561346339095,0.20566014545147246
79,313.403,-0.07144990630348885,0.21460029066792397,-0.007620388834625374,0.008875146792268147,0.05718649290424779,0.1289250351000349,1.0850577696974162,-1.3286568055497903,0.2040189472969267
80,313.409,-0.07117539632809446,0.2146821697478364,-0.006812445536269823,0.08262817833962827,-0.02989346626663804,0.14038939768641404,1.4218476311515547,-1.6312380675310627,0.18566093273118411
81,313.416,-0.07022426935884354,0.21405151769389308,-0.0057904205312006764,0.18912238430329528,-0.15029283485989686,0.1516177466188477,1.6808343233994294,-1.8765673092336197,0.14147419445075357
82,313.423,-0.06847722240559911,0.21252979658876034,-0.0047042429490175295,0.310033888051898,-0.2844846237491456,0.15871870543325822,1.8418919825406739,-2.0330767701601125,0.06541045785604026
83,313.43,-0.06585781675639943,0.21004550909326727,-0.0035900774316465433,0.43836772600462115,-0.42531180353407716,0.15961429952965323,1.8970821670016238,-2.0698877571127334,-0.03931754870345027
84,313.436,-0.06289698287002321,0.20713874636873594,-0.0026492455295628763,0.5485769027920878,-0.5436091046475824,0.1539963344997094,1.848987312653662,-1.9511014394719373,-0.15164011879667222
85,313.443,-0.05863427246467013,0.20290343795801277,-0.0016181606542412322,0.6693403558793511,-0.6664790127010313,0.140599344163407,1.669425574437591,-1.628682484217193,-0.23867783123265393
86,313.45,-0.05359193704619303,0.19791312496203803,-0.0006961071118163293,0.7713269065416478,-0.7593247004335875,0.12284452510066268,1.3019269745899666,-1.0763533182372587,-0.2786043646746899
87,313.457,-0.047943402980345794,0.19242527315048302,9.738570242351526e-05,0.8425399694135519,-0.8086329600095804,0.10386770753913087,0.7728477335884698,-0.3602304452864058,-0.2742804507025798
88,313.463,-0.04279984266231288,0.18757362611381376,0.0006748175501510009,0.8719801365892327,-0.8085827188724509,0.0886095750357786,0.22783945913416248,0.36193816868937806,-0.2443517190760712
89,313.47,-0.0366918868210554,0.1820691424926128,0.0012408599141748374,0.8731501037688013,-0.7641268871838437,0.07311681468520191,-0.193752759086809,0.9332713265751452,-0.20702596415973953
90,313.477,-0.03065700671874988,0.1769843955476133,0.001707073435876904,0.8511013540455451,-0.6886579542553442,0.06008704865923216,-0.44863202859500456,1.265497087250707,-0.1725929977856532
91,313.484,-0.02482059536068178,0.1724767856630086,0.0020895205213907185,0.816444748258434,-0.5992305842022146,0.049183547201779615,-0.5610794802014683,1.339946887808946,-0.14507777976820058
92,313.49,-0.020022433444264357,0.16910471683919576,0.0023607478613503004,0.7829425572064037,-0.5247923570633688,0.04122556611764929,-0.5776780993277416,1.1902486814727968,-0.12541829803248652
93,313.497,-0.014676909593534628,0.1656803495450737,0.0026206601573275524,0.7443499715724275,-0.4535982983993702,0.03303508987579826,-0.5467071941487288,0.8839723438794665,-0.11320917099094377
94,313.504,-0.009592860763835179,0.16267149942500403,0.0028254270505656,0.7082354083406626,-0.40607316447706754,0.025469736763602084,-0.5054815387661573,0.5006605013915262,-0.10720549259202629
95,313.511,-0.004752978360006838,0.15990293290063118,0.0029782715026640976,0.6745881356093038,-0.3849458424860415,0.018200106693080295,-0.4748233048519061,0.11487872063815872,-0.10459335441533518
96,313.517,-0.0007881663772186997,0.15758451634200965,0.003069294147829444,0.6470158586596196,-0.3878596770581011,0.012140775028844414,-0.4623732896295148,-0.21392153247411488,-0.10136660351336131
97,313.524,0.003629177525749922,0.1547899314603896,0.0031307446820424472,0.6150823993305131,-0.4105931462613448,0.005416520460572537,-0.46800003078013863,-0.4484123853477556,-0.09454286515671963
98,313.531,0.00782012145633429,0.1517927289635697,0.0031473117987431353,0.5823301522641652,-0.4457504242580146,-0.0006830585460936428,-0.48622846479100285,-0.5758860825765519,-0.08316683785564795
99,313.538,0.011777060587454749,0.1485307522610424,0.0031245000306577334,0.5482238851980149,-0.4862429193205536,-0.0058345894783022045,-0.5074490635371045,-0.6038525951140249,-0.06692172252225541
100,313.544,0.014975628259973757,0.14551128720300338,0.003079616356953975,0.5179653389799983,-0.5202454333638508,-0.009126635089687586,-0.5210552751228436,-0.5519112332900673,-0.044976686938020746
101,313.551,0.018476406341907853,0.14174975427333084,0.0030082984344445814,0.48225697014331415,-0.554478260827538,-0.011249914198695997,-0.5192990860696319,-0.4454536004463052,-0.01688451683716949
